EMG Raw,Blood Pressure,Filtered ECG,Time
0.012664,-32.00437,0.012664,0.002
-0.009764,-32.00437,-0.009764,0.004
-0.112048,-32.00437,-0.112048,0.006
-0.031186,-32.083278,-0.031186,0.008
0.049343,-32.083278,0.049343,0.01
0.003911,-32.00437,0.003911,0.012
-0.132703,-32.00437,-0.132703,0.014
-0.148843,-32.083278,-0.148843,0.016
-0.102105,-32.00437,-0.102105,0.018
-0.078402,-32.083278,-0.078402,0.02
-0.094771,-32.00437,-0.094771,0.022
0.003131,-32.083278,0.003131,0.024
0.072078,-32.00437,0.072078,0.026
0.037952,-32.00437,0.037952,0.028
0.089618,-32.00437,0.089618,0.03
0.072544,-32.00437,0.072544,0.032
-0.127194,-32.083278,-0.127194,0.034
-0.017759,-32.083278,-0.017759,0.036
0.028412,-32.00437,0.028412,0.038
0.022997,-32.00437,0.022997,0.04
-0.102316,-32.00437,-0.102316,0.042
-0.061519,-32.083278,-0.061519,0.044
0.00195,-32.083278,0.00195,0.046
0.008053,-32.083278,0.008053,0.048
0.014127,0,0.014127,0.05
-0.116874,0,-0.116874,0.052
0.003912,0,0.003912,0.054
-0.035688,0,-0.035688,0.056
-0.240727,0,-0.240727,0.058
-0.182254,0,-0.182254,0.06
0.052998,0,0.052998,0.062
0.081711,0,0.081711,0.064
-0.015324,0,-0.015324,0.066
0.093606,0,0.093606,0.068
-0.026326,0,-0.026326,0.07
0.014119,0,0.014119,0.072
0.071526,0,0.071526,0.074
-0.059747,0,-0.059747,0.076
-0.087699,0,-0.087699,0.078
-0.069856,0,-0.069856,0.08
0.067827,0,0.067827,0.082
0.010792,0,0.010792,0.084
-0.103116,0,-0.103116,0.086
0.011853,0,0.011853,0.088
0.057824,0,0.057824,0.09
-0.022024,0,-0.022024,0.092
-0.033024,0,-0.033024,0.094
-0.00401,0,-0.00401,0.096
-0.100745,-32.00437,-0.100745,0.098
-0.134273,-32.083278,-0.134273,0.1
-0.047749,-32.00437,-0.047749,0.102
-0.035816,-32.083278,-0.035816,0.104
-0.069618,-32.00437,-0.069618,0.106
0.010923,-32.00437,0.010923,0.108
-0.040207,-32.083278,-0.040207,0.11
-0.056869,-32.00437,-0.056869,0.112
-0.056334,-32.083278,-0.056334,0.114
-0.221403,-32.00437,-0.221403,0.116
-0.06602,-32.083278,-0.06602,0.118
0.174378,-32.083278,0.174378,0.12
0.076879,-32.083278,0.076879,0.122
-0.054487,-32.083278,-0.054487,0.124
-0.105373,-32.00437,-0.105373,0.126
-0.076109,-32.00437,-0.076109,0.128
-0.052678,-32.00437,-0.052678,0.13
-0.189234,-32.00437,-0.189234,0.132
-0.10824,-32.083278,-0.10824,0.134
-0.118946,-32.083278,-0.118946,0.136
-0.135321,-32.083278,-0.135321,0.138
-0.123079,-32.00437,-0.123079,0.14
-0.042365,-32.083278,-0.042365,0.142
-0.087613,-32.083278,-0.087613,0.144
-0.064153,-32.083278,-0.064153,0.146
0.027731,-32.00437,0.027731,0.148
0.050712,-32.083278,0.050712,0.15
-0.01777,-32.083278,-0.01777,0.152
-0.068844,-32.083278,-0.068844,0.154
-0.07974,-32.083278,-0.07974,0.156
-0.187668,-32.00437,-0.187668,0.158
-0.232343,-32.00437,-0.232343,0.16
-0.231154,-32.083278,-0.231154,0.162
-0.189998,-32.083278,-0.189998,0.164
-0.183275,-32.083278,-0.183275,0.166
-0.108058,-32.083278,-0.108058,0.168
-0.02173,-32.083278,-0.02173,0.17
-0.072807,-32.083278,-0.072807,0.172
-0.066573,-32.00437,-0.066573,0.174
0.327933,-32.00437,0.327933,0.176
0.458142,-32.00437,0.458142,0.178
0.273744,-32.00437,0.273744,0.18
0.335639,-32.00437,0.335639,0.182
0.300199,-32.00437,0.300199,0.184
0.202085,-32.00437,0.202085,0.186
0.075816,-32.00437,0.075816,0.188
-0.038519,-32.00437,-0.038519,0.19
-0.026762,-32.083278,-0.026762,0.192
0.053468,-32.083278,0.053468,0.194
-0.123599,-32.083278,-0.123599,0.196
-0.100082,-32.083278,-0.100082,0.198
-0.122347,-32.00437,-0.122347,0.2
-0.155943,-32.083278,-0.155943,0.202
-0.075197,-32.00437,-0.075197,0.204
0.09087,-32.00437,0.09087,0.206
-0.063525,-32.00437,-0.063525,0.208
-0.120215,-32.083278,-0.120215,0.21
-0.102442,-32.00437,-0.102442,0.212
0.018042,-32.00437,0.018042,0.214
-0.170327,-32.083278,-0.170327,0.216
-0.255142,-32.00437,-0.255142,0.218
0.048691,-32.083278,0.048691,0.22
0.002946,-32.083278,0.002946,0.222
-0.191082,-32.00437,-0.191082,0.224
-0.104513,-32.083278,-0.104513,0.226
-0.046852,-32.00437,-0.046852,0.228
-0.052244,-32.00437,-0.052244,0.23
-0.046195,-32.00437,-0.046195,0.232
-0.057306,-32.083278,-0.057306,0.234
-0.125477,-32.083278,-0.125477,0.236
-0.073455,-32.083278,-0.073455,0.238
-0.04449,-32.083278,-0.04449,0.24
-0.021357,-32.00437,-0.021357,0.242
0.001678,-32.083278,0.001678,0.244
-0.140984,-32.083278,-0.140984,0.246
-0.22025,-32.083278,-0.22025,0.248
-0.007967,-32.083278,-0.007967,0.25
-0.019259,-32.083278,-0.019259,0.252
-0.099032,-32.083278,-0.099032,0.254
-0.155639,-32.083278,-0.155639,0.256
-0.206307,-32.00437,-0.206307,0.258
-0.233927,-32.00437,-0.233927,0.26
-0.15294,-32.083278,-0.15294,0.262
-0.072286,-32.083278,-0.072286,0.264
-0.054779,-32.083278,-0.054779,0.266
-0.031637,-32.00437,-0.031637,0.268
0.03709,-32.00437,0.03709,0.27
-0.025805,-32.083278,-0.025805,0.272
-0.122708,-32.00437,-0.122708,0.274
-0.184955,-32.00437,-0.184955,0.276
-0.09848,-32.00437,-0.09848,0.278
-0.120858,-32.00437,-0.120858,0.28
-0.097464,-32.083278,-0.097464,0.282
0.000065,-32.00437,0.000065,0.284
0.022957,-32.083278,0.022957,0.286
0.091435,-32.083278,0.091435,0.288
-0.091626,-32.083278,-0.091626,0.29
-0.171154,-32.00437,-0.171154,0.292
-0.113311,-32.083278,-0.113311,0.294
-0.09568,-32.083278,-0.09568,0.296
-0.060993,-32.00437,-0.060993,0.298
-0.100684,-32.083278,-0.100684,0.3
-0.197319,-32.00437,-0.197319,0.302
-0.259298,-32.00437,-0.259298,0.304
-0.195397,-32.083278,-0.195397,0.306
-0.068947,-32.083278,-0.068947,0.308
-0.040093,-32.083278,-0.040093,0.31
-0.045621,-32.00437,-0.045621,0.312
-0.159627,-32.083278,-0.159627,0.314
-0.181802,-32.00437,-0.181802,0.316
-0.026869,-32.00437,-0.026869,0.318
0.053192,-32.00437,0.053192,0.32
0.041557,-32.00437,0.041557,0.322
-0.004297,-32.083278,-0.004297,0.324
-0.11278,-32.00437,-0.11278,0.326
-0.083773,-32.00437,-0.083773,0.328
-0.072019,-32.083278,-0.072019,0.33
-0.248756,-32.083278,-0.248756,0.332
-0.133545,-32.083278,-0.133545,0.334
-0.070201,-32.083278,-0.070201,0.336
-0.144166,-32.00437,-0.144166,0.338
-0.132177,-32.083278,-0.132177,0.34
-0.046004,-32.083278,-0.046004,0.342
-0.051553,-32.00437,-0.051553,0.344
-0.051372,-32.00437,-0.051372,0.346
-0.062615,-32.00437,-0.062615,0.348
0.02326,-32.00437,0.02326,0.35
0.080228,-32.00437,0.080228,0.352
-0.005799,-32.00437,-0.005799,0.354
-0.108608,-32.083278,-0.108608,0.356
-0.182447,-32.083278,-0.182447,0.358
-0.130359,-32.00437,-0.130359,0.36
-0.152721,-32.083278,-0.152721,0.362
-0.032235,-32.083278,-0.032235,0.364
-0.089266,-32.083278,-0.089266,0.366
-0.157487,-32.00437,-0.157487,0.368
-0.04841,-32.00437,-0.04841,0.37
0.014534,-32.00437,0.014534,0.372
-0.002728,-32.00437,-0.002728,0.374
-0.008502,-32.00437,-0.008502,0.376
-0.071359,-32.00437,-0.071359,0.378
-0.219617,-32.083278,-0.219617,0.38
-0.098883,-32.00437,-0.098883,0.382
0.112718,-32.083278,0.112718,0.384
0.055063,-32.00437,0.055063,0.386
-0.053753,-32.083278,-0.053753,0.388
-0.070761,-32.083278,-0.070761,0.39
-0.184778,-32.00437,-0.184778,0.392
-0.052786,-32.083278,-0.052786,0.394
-0.115488,-32.083278,-0.115488,0.396
-0.143675,-32.00437,-0.143675,0.398
0.039534,-32.00437,0.039534,0.4
0.004996,-32.00437,0.004996,0.402
0.004858,-32.00437,0.004858,0.404
0.07324,-32.00437,0.07324,0.406
-0.058522,-32.00437,-0.058522,0.408
-0.161197,-32.083278,-0.161197,0.41
-0.126405,-32.083278,-0.126405,0.412
-0.046076,-32.083278,-0.046076,0.414
-0.034603,-32.083278,-0.034603,0.416
-0.068863,-32.00437,-0.068863,0.418
-0.068723,-32.083278,-0.068723,0.42
0.039909,-32.00437,0.039909,0.422
0.051016,-32.083278,0.051016,0.424
0.004971,-32.083278,0.004971,0.426
0.004794,-32.083278,0.004794,0.428
-0.098172,-31.925463,-0.098172,0.43
-0.04654,-32.00437,-0.04654,0.432
-0.097909,-32.00437,-0.097909,0.434
-0.131939,-32.083278,-0.131939,0.436
-0.091599,-32.083278,-0.091599,0.438
-0.11995,-32.00437,-0.11995,0.44
-0.131056,-32.083278,-0.131056,0.442
-0.130699,-32.083278,-0.130699,0.444
-0.050402,-32.083278,-0.050402,0.446
0.029564,-32.00437,0.029564,0.448
-0.079242,-32.00437,-0.079242,0.45
-0.216157,-32.083278,-0.216157,0.452
-0.198335,-32.00437,-0.198335,0.454
-0.123484,-32.083278,-0.123484,0.456
-0.18028,-32.083278,-0.18028,0.458
-0.276817,-32.00437,-0.276817,0.46
-0.1731,-32.083278,-0.1731,0.462
-0.161174,-32.00437,-0.161174,0.464
-0.337739,-32.083278,-0.337739,0.466
-0.228067,-32.00437,-0.228067,0.468
-0.084583,-32.083278,-0.084583,0.47
-0.181524,-32.083278,-0.181524,0.472
-0.11818,-32.083278,-0.11818,0.474
-0.100781,-32.00437,-0.100781,0.476
-0.106298,-32.083278,-0.106298,0.478
-0.03185,-32.083278,-0.03185,0.48
-0.026234,-32.083278,-0.026234,0.482
-0.094879,-32.083278,-0.094879,0.484
-0.317423,-32.083278,-0.317423,0.486
-0.21928,-32.083278,-0.21928,0.488
-0.138671,-32.00437,-0.138671,0.49
-0.206863,-32.00437,-0.206863,0.492
-0.177702,-32.083278,-0.177702,0.494
-0.234318,-32.083278,-0.234318,0.496
-0.284993,-32.083278,-0.284993,0.498
-0.301199,-32.083278,-0.301199,0.5
-0.208845,-32.083278,-0.208845,0.502
-0.185394,-32.083278,-0.185394,0.504
-0.179172,-32.00437,-0.179172,0.506
-0.138716,-32.083278,-0.138716,0.508
-0.058456,-32.00437,-0.058456,0.51
-0.047052,-32.00437,-0.047052,0.512
-0.109932,-32.083278,-0.109932,0.514
-0.178267,-32.083278,-0.178267,0.516
-0.263455,-32.083278,-0.263455,0.518
-0.205538,-32.083278,-0.205538,0.52
-0.182122,-32.00437,-0.182122,0.522
-0.187356,-32.083278,-0.187356,0.524
-0.19828,-32.00437,-0.19828,0.526
-0.117797,-32.083278,-0.117797,0.528
-0.077618,-32.083278,-0.077618,0.53
-0.054737,-32.083278,-0.054737,0.532
-0.020533,-32.00437,-0.020533,0.534
-0.12352,-32.083278,-0.12352,0.536
-0.117592,-32.00437,-0.117592,0.538
-0.10598,-32.00437,-0.10598,0.54
-0.231467,-32.083278,-0.231467,0.542
-0.219393,-32.00437,-0.219393,0.544
-0.19595,-32.00437,-0.19595,0.546
-0.26968,-32.083278,-0.26968,0.548
-0.34311,-32.083278,-0.34311,0.55
-0.267771,-32.083278,-0.267771,0.552
-0.192742,-32.083278,-0.192742,0.554
-0.123734,-32.083278,-0.123734,0.556
-0.220609,-32.00437,-0.220609,0.558
-0.185752,-32.00437,-0.185752,0.56
-0.162461,-32.083278,-0.162461,0.562
-0.207791,-32.083278,-0.207791,0.564
-0.178703,-32.083278,-0.178703,0.566
-0.252522,-32.00437,-0.252522,0.568
-0.228965,-32.083278,-0.228965,0.57
-0.108431,-32.083278,-0.108431,0.572
0.017317,-32.00437,0.017317,0.574
-0.1601,-32.083278,-0.1601,0.576
-0.308242,-32.083278,-0.308242,0.578
-0.358702,-32.083278,-0.358702,0.58
-0.448929,-32.083278,-0.448929,0.582
-0.25327,-32.00437,-0.25327,0.584
-0.189751,-32.083278,-0.189751,0.586
-0.126494,-32.083278,-0.126494,0.588
0.016445,-32.083278,0.016445,0.59
-0.138142,-32.083278,-0.138142,0.592
-0.354911,-32.00437,-0.354911,0.594
-0.256725,-32.083278,-0.256725,0.596
-0.073289,-32.00437,-0.073289,0.598
-0.067626,-32.00437,-0.067626,0.6
-0.193328,-32.083278,-0.193328,0.602
-0.249992,-32.083278,-0.249992,0.604
-0.249323,-32.00437,-0.249323,0.606
-0.174424,-32.083278,-0.174424,0.608
-0.20833,-32.00437,-0.20833,0.61
-0.230678,-32.083278,-0.230678,0.612
-0.155861,-32.00437,-0.155861,0.614
-0.189849,-32.083278,-0.189849,0.616
-0.166597,-32.00437,-0.166597,0.618
-0.143442,-32.00437,-0.143442,0.62
-0.091833,-32.00437,-0.091833,0.622
-0.171775,-32.083278,-0.171775,0.624
-0.21142,-32.00437,-0.21142,0.626
-0.216642,-32.083278,-0.216642,0.628
-0.079087,-32.00437,-0.079087,0.63
-0.107698,-32.00437,-0.107698,0.632
-0.090512,-32.083278,-0.090512,0.634
-0.136212,-32.083278,-0.136212,0.636
-0.261672,-32.00437,-0.261672,0.638
-0.255283,-32.00437,-0.255283,0.64
-0.157556,-32.083278,-0.157556,0.642
-0.22012,-32.00437,-0.22012,0.644
-0.202486,-32.083278,-0.202486,0.646
-0.230608,-32.083278,-0.230608,0.648
-0.264327,-32.00437,-0.264327,0.65
-0.252227,-32.00437,-0.252227,0.652
-0.365805,-32.00437,-0.365805,0.654
-0.364712,-32.00437,-0.364712,0.656
-0.266549,-32.00437,-0.266549,0.658
-0.288706,-32.00437,-0.288706,0.66
-0.190857,-32.083278,-0.190857,0.662
-0.161934,-32.083278,-0.161934,0.664
-0.110291,-32.00437,-0.110291,0.666
-0.178779,-32.00437,-0.178779,0.668
-0.161333,-32.00437,-0.161333,0.67
-0.218196,-32.00437,-0.218196,0.672
-0.154911,-32.00437,-0.154911,0.674
-0.131859,-32.083278,-0.131859,0.676
-0.177428,-32.00437,-0.177428,0.678
-0.194262,-32.083278,-0.194262,0.68
-0.205318,-32.083278,-0.205318,0.682
-0.273434,-32.00437,-0.273434,0.684
-0.169962,-32.083278,-0.169962,0.686
-0.1126,-32.083278,-0.1126,0.688
-0.095447,-32.083278,-0.095447,0.69
-0.12405,-32.00437,-0.12405,0.692
-0.078304,-32.00437,-0.078304,0.694
-0.341105,-32.00437,-0.341105,0.696
-0.311605,-32.083278,-0.311605,0.698
-0.34504,-32.00437,-0.34504,0.7
-0.349788,-32.083278,-0.349788,0.702
-0.246021,-32.083278,-0.246021,0.704
-0.222624,-32.083278,-0.222624,0.706
-0.256429,-32.083278,-0.256429,0.708
-0.238704,-32.00437,-0.238704,0.71
-0.203922,-32.083278,-0.203922,0.712
-0.129312,-32.00437,-0.129312,0.714
-0.209189,-32.00437,-0.209189,0.716
-0.10601,-32.00437,-0.10601,0.718
-0.168857,-32.00437,-0.168857,0.72
-0.151503,-32.00437,-0.151503,0.722
-0.145644,-32.00437,-0.145644,0.724
-0.168363,-32.00437,-0.168363,0.726
-0.202411,-32.00437,-0.202411,0.728
-0.264874,-32.00437,-0.264874,0.73
-0.241427,-32.083278,-0.241427,0.732
-0.195237,-32.00437,-0.195237,0.734
-0.154948,-32.083278,-0.154948,0.736
-0.097696,-32.00437,-0.097696,0.738
-0.177729,-32.00437,-0.177729,0.74
-0.33738,-32.00437,-0.33738,0.742
-0.319359,-32.083278,-0.319359,0.744
-0.347095,-32.00437,-0.347095,0.746
-0.431821,-32.00437,-0.431821,0.748
-0.310629,-32.083278,-0.310629,0.75
-0.098569,-32.00437,-0.098569,0.752
-0.121504,-32.00437,-0.121504,0.754
-0.218582,-32.00437,-0.218582,0.756
-0.201057,-32.00437,-0.201057,0.758
-0.195027,-32.083278,-0.195027,0.76
-0.274678,-32.00437,-0.274678,0.762
-0.319742,-32.00437,-0.319742,0.764
-0.273258,-32.00437,-0.273258,0.766
-0.181283,-32.00437,-0.181283,0.768
-0.203893,-32.00437,-0.203893,0.77
-0.192151,-32.00437,-0.192151,0.772
-0.174749,-32.00437,-0.174749,0.774
-0.231654,-32.083278,-0.231654,0.776
-0.305458,-32.00437,-0.305458,0.778
-0.299017,-32.00437,-0.299017,0.78
-0.206949,-32.00437,-0.206949,0.782
-0.172363,-32.00437,-0.172363,0.784
-0.240707,-32.00437,-0.240707,0.786
-0.188855,-32.083278,-0.188855,0.788
-0.074405,-32.00437,-0.074405,0.79
-0.148867,-32.083278,-0.148867,0.792
-0.200185,-32.00437,-0.200185,0.794
-0.15993,-32.00437,-0.15993,0.796
-0.114132,-32.083278,-0.114132,0.798
-0.034262,-31.925463,-0.034262,0.8
-0.217397,-32.00437,-0.217397,0.802
-0.262736,-32.00437,-0.262736,0.804
-0.262209,-32.00437,-0.262209,0.806
-0.341629,-32.00437,-0.341629,0.808
-0.346491,-32.00437,-0.346491,0.81
-0.368465,-32.00437,-0.368465,0.812
-0.356087,-32.083278,-0.356087,0.814
-0.246686,-32.00437,-0.246686,0.816
-0.189127,-32.00437,-0.189127,0.818
-0.240302,-32.00437,-0.240302,0.82
-0.245586,-32.083278,-0.245586,0.822
-0.096672,-32.00437,-0.096672,0.824
-0.068287,-32.00437,-0.068287,0.826
-0.119966,-32.00437,-0.119966,0.828
-0.268511,-32.083278,-0.268511,0.83
-0.336505,-32.083278,-0.336505,0.832
-0.329987,-32.083278,-0.329987,0.834
-0.289235,-32.083278,-0.289235,0.836
-0.23723,-32.00437,-0.23723,0.838
-0.248254,-32.083278,-0.248254,0.84
-0.287785,-32.00437,-0.287785,0.842
-0.292894,-32.083278,-0.292894,0.844
-0.286563,-32.00437,-0.286563,0.846
-0.206025,-32.00437,-0.206025,0.848
-0.148659,-32.00437,-0.148659,0.85
-0.297103,-32.00437,-0.297103,0.852
-0.313602,-32.00437,-0.313602,0.854
-0.301484,-32.00437,-0.301484,0.856
-0.335098,-32.00437,-0.335098,0.858
-0.414258,-31.846555,-0.414258,0.86
-0.367467,-32.00437,-0.367467,0.862
-0.269476,-32.00437,-0.269476,0.864
-0.22328,-32.083278,-0.22328,0.866
-0.25151,-32.00437,-0.25151,0.868
-0.216811,-32.00437,-0.216811,0.87
-0.216519,-32.00437,-0.216519,0.872
-0.181968,-32.00437,-0.181968,0.874
-0.090457,-32.083278,-0.090457,0.876
0.034938,-32.00437,0.034938,0.878
0.022767,-32.083278,0.022767,0.88
0.016353,-32.083278,0.016353,0.882
-0.007169,-32.00437,-0.007169,0.884
0.015084,-32.083278,0.015084,0.886
0.00869,-31.925463,0.00869,0.888
-0.089046,-32.00437,-0.089046,0.89
-0.26633,-32.00437,-0.26633,0.892
-0.180214,-32.00437,-0.180214,0.894
-0.214369,-32.00437,-0.214369,0.896
-0.276938,-32.00437,-0.276938,0.898
-0.362094,-32.083278,-0.362094,0.9
-0.481163,-32.00437,-0.481163,0.902
-0.33707,-32.00437,-0.33707,0.904
-0.227829,-32.00437,-0.227829,0.906
-0.256085,-32.00437,-0.256085,0.908
-0.255676,-32.00437,-0.255676,0.91
-0.192456,-32.00437,-0.192456,0.912
-0.16947,-32.00437,-0.16947,0.914
-0.14658,-32.00437,-0.14658,0.916
-0.283675,-31.925463,-0.283675,0.918
-0.328844,-32.00437,-0.328844,0.92
-0.368119,-31.925463,-0.368119,0.922
-0.315869,-32.00437,-0.315869,0.924
-0.315227,-32.00437,-0.315227,0.926
-0.263195,-32.00437,-0.263195,0.928
-0.154275,-32.00437,-0.154275,0.93
-0.205692,-31.925463,-0.205692,0.932
-0.291163,-31.925463,-0.291163,0.934
-0.29634,-31.925463,-0.29634,0.936
-0.244394,-31.925463,-0.244394,0.938
-0.301158,-31.925463,-0.301158,0.94
-0.369112,-31.925463,-0.369112,0.942
-0.259768,-31.925463,-0.259768,0.944
-0.247949,-31.925463,-0.247949,0.946
-0.23618,-31.925463,-0.23618,0.948
-0.22446,-31.925463,-0.22446,0.95
-0.224211,-31.925463,-0.224211,0.952
-0.218255,-31.925463,-0.218255,0.954
-0.252297,-31.846555,-0.252297,0.956
-0.26907,-31.925463,-0.26907,0.958
-0.222962,-31.925463,-0.222962,0.96
-0.239859,-31.925463,-0.239859,0.962
-0.268108,-31.925463,-0.268108,0.964
-0.199168,-31.925463,-0.199168,0.966
-0.187616,-31.846555,-0.187616,0.968
-0.147561,-31.846555,-0.147561,0.97
-0.461712,-32.00437,-0.461712,0.972
-0.506192,-31.925463,-0.506192,0.974
-0.299234,-31.846555,-0.299234,0.976
-0.258725,-31.925463,-0.258725,0.978
-0.235514,-31.925463,-0.235514,0.98
-0.109614,-31.925463,-0.109614,0.982
-0.012785,-31.925463,-0.012785,0.984
-0.224712,-31.925463,-0.224712,0.986
-0.327277,-31.925463,-0.327277,0.988
-0.320927,-31.925463,-0.320927,0.99
-0.297473,-31.925463,-0.297473,0.992
-0.302668,-31.925463,-0.302668,0.994
-0.136533,-32.00437,-0.136533,0.996
-0.233755,-31.925463,-0.233755,0.998
-0.324871,-31.925463,-0.324871,1
-0.250015,-31.925463,-0.250015,1.002
-0.198309,-31.925463,-0.198309,1.004
-0.192499,-31.925463,-0.192499,1.006
-0.243818,-31.925463,-0.243818,1.008
-0.306349,-31.925463,-0.306349,1.01
-0.322943,-31.925463,-0.322943,1.012
-0.259525,-31.846555,-0.259525,1.014
-0.150686,-31.925463,-0.150686,1.016
-0.065136,-31.925463,-0.065136,1.018
-0.037043,-31.925463,-0.037043,1.02
-0.260322,-31.925463,-0.260322,1.022
-0.33993,-31.846555,-0.33993,1.024
-0.299296,-31.925463,-0.299296,1.026
-0.321643,-31.925463,-0.321643,1.028
-0.229694,-31.925463,-0.229694,1.03
-0.240908,-31.925463,-0.240908,1.032
-0.309182,-31.925463,-0.309182,1.034
-0.377176,-31.925463,-0.377176,1.036
-0.422052,-31.925463,-0.422052,1.038
-0.301144,-31.846555,-0.301144,1.04
-0.112209,-31.925463,-0.112209,1.042
-0.163884,-31.925463,-0.163884,1.044
-0.169667,-31.925463,-0.169667,1.046
-0.243952,-31.925463,-0.243952,1.048
-0.329356,-31.925463,-0.329356,1.05
-0.163156,-31.925463,-0.163156,1.052
-0.128977,-31.846555,-0.128977,1.054
-0.169174,-31.925463,-0.169174,1.056
-0.152106,-31.925463,-0.152106,1.058
-0.249317,-31.925463,-0.249317,1.06
-0.277607,-31.925463,-0.277607,1.062
-0.311492,-31.925463,-0.311492,1.064
-0.242455,-31.925463,-0.242455,1.066
-0.270777,-31.925463,-0.270777,1.068
-0.287563,-31.925463,-0.287563,1.07
-0.281441,-31.925463,-0.281441,1.072
-0.235373,-32.00437,-0.235373,1.074
-0.155234,-31.925463,-0.155234,1.076
-0.115397,-31.925463,-0.115397,1.078
-0.252746,-32.00437,-0.252746,1.08
-0.241066,-31.925463,-0.241066,1.082
-0.080967,-31.925463,-0.080967,1.084
-0.064285,-31.925463,-0.064285,1.086
-0.064805,-31.925463,-0.064805,1.088
-0.179532,-31.925463,-0.179532,1.09
-0.151034,-32.00437,-0.151034,1.092
-0.21402,-31.925463,-0.21402,1.094
-0.350983,-31.925463,-0.350983,1.096
-0.276105,-31.925463,-0.276105,1.098
-0.144431,-31.925463,-0.144431,1.1
-0.110375,-31.925463,-0.110375,1.102
-0.076461,-31.846555,-0.076461,1.104
-0.174026,-31.925463,-0.174026,1.106
-0.20267,-31.925463,-0.20267,1.108
-0.111282,-31.925463,-0.111282,1.11
-0.191581,-31.925463,-0.191581,1.112
-0.362917,-31.925463,-0.362917,1.114
-0.265168,-31.925463,-0.265168,1.116
-0.179241,-31.925463,-0.179241,1.118
-0.150771,-31.925463,-0.150771,1.12
-0.162392,-31.925463,-0.162392,1.122
-0.225361,-31.846555,-0.225361,1.124
-0.316625,-32.00437,-0.316625,1.126
-0.350414,-31.925463,-0.350414,1.128
-0.235596,-31.925463,-0.235596,1.13
-0.132671,-31.925463,-0.132671,1.132
-0.20148,-32.00437,-0.20148,1.134
-0.235747,-32.00437,-0.235747,1.136
-0.304137,-31.925463,-0.304137,1.138
-0.315145,-31.925463,-0.315145,1.14
-0.297557,-31.925463,-0.297557,1.142
-0.314304,-31.925463,-0.314304,1.144
-0.193936,-31.925463,-0.193936,1.146
-0.108325,-31.925463,-0.108325,1.148
-0.091591,-31.846555,-0.091591,1.15
-0.189135,-32.00437,-0.189135,1.152
-0.25202,-31.925463,-0.25202,1.154
-0.297517,-31.925463,-0.297517,1.156
-0.377091,-31.925463,-0.377091,1.158
-0.319293,-31.925463,-0.319293,1.16
-0.370227,-31.925463,-0.370227,1.162
-0.278196,-31.925463,-0.278196,1.164
-0.277908,-31.925463,-0.277908,1.166
-0.283333,-32.00437,-0.283333,1.168
-0.300158,-31.925463,-0.300158,1.17
-0.259812,-31.925463,-0.259812,1.172
-0.35668,-31.925463,-0.35668,1.174
-0.361786,-32.00437,-0.361786,1.176
-0.304059,-31.925463,-0.304059,1.178
-0.286542,-31.925463,-0.286542,1.18
-0.223415,-31.925463,-0.223415,1.182
-0.1891,-31.925463,-0.1891,1.184
-0.263424,-31.925463,-0.263424,1.186
-0.468782,-31.925463,-0.468782,1.188
-0.507699,-31.846555,-0.507699,1.19
-0.449381,-31.925463,-0.449381,1.192
-0.271385,-32.00437,-0.271385,1.194
-0.408186,-31.925463,-0.408186,1.196
-0.481614,-32.00437,-0.481614,1.198
-0.337749,-32.00437,-0.337749,1.2
-0.240157,-31.925463,-0.240157,1.202
-0.102993,-31.925463,-0.102993,1.204
-0.126283,-32.00437,-0.126283,1.206
-0.400734,-31.925463,-0.400734,1.208
-0.331442,-32.00437,-0.331442,1.21
-0.256725,-32.00437,-0.256725,1.212
-0.285101,-32.00437,-0.285101,1.214
-0.221996,-31.925463,-0.221996,1.216
-0.210545,-32.00437,-0.210545,1.218
-0.204853,-32.00437,-0.204853,1.22
-0.27342,-32.083278,-0.27342,1.222
-0.38739,-32.00437,-0.38739,1.224
-0.341004,-32.00437,-0.341004,1.226
-0.329072,-32.00437,-0.329072,1.228
-0.271506,-31.925463,-0.271506,1.23
-0.282702,-31.925463,-0.282702,1.232
-0.350956,-32.00437,-0.350956,1.234
-0.321855,-32.00437,-0.321855,1.236
-0.190089,-31.925463,-0.190089,1.238
-0.264436,-31.925463,-0.264436,1.24
-0.418425,-31.925463,-0.418425,1.242
-0.394763,-31.925463,-0.394763,1.244
-0.331226,-31.925463,-0.331226,1.246
-0.313632,-31.925463,-0.313632,1.248
-0.330374,-31.925463,-0.330374,1.25
-0.432702,-31.925463,-0.432702,1.252
-0.323329,-31.925463,-0.323329,1.254
-0.265799,-31.925463,-0.265799,1.256
-0.242767,-31.925463,-0.242767,1.258
-0.345458,-32.00437,-0.345458,1.26
-0.379205,-31.925463,-0.379205,1.262
-0.298608,-31.925463,-0.298608,1.264
-0.332549,-31.925463,-0.332549,1.266
-0.280696,-31.846555,-0.280696,1.268
-0.303292,-31.846555,-0.303292,1.27
-0.365768,-31.846555,-0.365768,1.272
-0.330913,-31.925463,-0.330913,1.274
-0.250519,-32.00437,-0.250519,1.276
-0.141905,-31.925463,-0.141905,1.278
-0.233598,-31.925463,-0.233598,1.28
-0.461966,-31.925463,-0.461966,1.282
-0.415302,-31.846555,-0.415302,1.284
-0.385961,-31.846555,-0.385961,1.286
-0.499498,-31.846555,-0.499498,1.288
-0.526915,-31.925463,-0.526915,1.29
-0.337226,-31.925463,-0.337226,1.292
-0.193998,-31.925463,-0.193998,1.294
-0.154144,-31.925463,-0.154144,1.296
-0.302896,-31.925463,-0.302896,1.298
-0.376805,-31.925463,-0.376805,1.3
-0.41615,-31.846555,-0.41615,1.302
-0.312577,-31.846555,-0.312577,1.304
-0.266531,-31.925463,-0.266531,1.306
-0.30062,-31.846555,-0.30062,1.308
-0.243205,-31.846555,-0.243205,1.31
-0.180317,-31.925463,-0.180317,1.312
-0.209053,-31.925463,-0.209053,1.314
-0.34046,-31.925463,-0.34046,1.316
-0.379963,-31.925463,-0.379963,1.318
-0.362202,-31.925463,-0.362202,1.32
-0.361645,-31.925463,-0.361645,1.322
-0.389642,-31.925463,-0.389642,1.324
-0.309029,-31.925463,-0.309029,1.326
-0.297271,-31.925463,-0.297271,1.328
-0.291273,-31.846555,-0.291273,1.33
-0.205355,-31.846555,-0.205355,1.332
-0.359625,-31.925463,-0.359625,1.334
-0.45045,-31.846555,-0.45045,1.336
-0.3182,-31.925463,-0.3182,1.338
-0.32354,-31.925463,-0.32354,1.34
-0.385963,-31.925463,-0.385963,1.342
-0.311082,-31.925463,-0.311082,1.344
-0.299323,-31.925463,-0.299323,1.346
-0.276192,-31.925463,-0.276192,1.348
-0.287419,-31.925463,-0.287419,1.35
-0.270049,-31.925463,-0.270049,1.352
-0.21278,-31.925463,-0.21278,1.354
-0.38416,-31.925463,-0.38416,1.356
-0.354977,-31.925463,-0.354977,1.358
-0.325914,-31.925463,-0.325914,1.36
-0.399756,-31.846555,-0.399756,1.362
-0.439034,-31.925463,-0.439034,1.364
-0.346814,-31.925463,-0.346814,1.366
-0.403441,-31.846555,-0.403441,1.368
-0.328498,-31.925463,-0.328498,1.37
-0.236732,-31.925463,-0.236732,1.372
-0.293812,-31.925463,-0.293812,1.374
-0.299266,-31.925463,-0.299266,1.376
-0.281858,-31.925463,-0.281858,1.378
-0.333045,-31.846555,-0.333045,1.38
-0.326921,-32.00437,-0.326921,1.382
-0.297981,-31.925463,-0.297981,1.384
-0.286292,-31.925463,-0.286292,1.386
-0.2461,-31.925463,-0.2461,1.388
-0.291729,-31.925463,-0.291729,1.39
-0.434247,-31.925463,-0.434247,1.392
-0.427713,-32.00437,-0.427713,1.394
-0.329841,-31.925463,-0.329841,1.396
-0.255212,-31.925463,-0.255212,1.398
-0.283675,-31.925463,-0.283675,1.4
-0.351996,-31.925463,-0.351996,1.402
-0.351513,-31.925463,-0.351513,1.404
-0.31677,-31.925463,-0.31677,1.406
-0.367826,-31.925463,-0.367826,1.408
-0.458645,-32.00437,-0.458645,1.41
-0.423464,-31.925463,-0.423464,1.412
-0.382718,-31.925463,-0.382718,1.414
-0.239353,-31.925463,-0.239353,1.416
-0.262175,-31.925463,-0.262175,1.418
-0.239223,-31.925463,-0.239223,1.42
-0.227787,-31.925463,-0.227787,1.422
-0.319186,-31.925463,-0.319186,1.424
-0.450182,-32.00437,-0.450182,1.426
-0.460726,-32.00437,-0.460726,1.428
-0.322757,-31.925463,-0.322757,1.43
-0.28243,-31.925463,-0.28243,1.432
-0.362185,-32.00437,-0.362185,1.434
-0.36738,-32.00437,-0.36738,1.436
-0.321162,-32.00437,-0.321162,1.438
-0.372209,-32.00437,-0.372209,1.44
-0.394495,-32.00437,-0.394495,1.442
-0.256802,-32.00437,-0.256802,1.444
-0.273852,-31.925463,-0.273852,1.446
-0.307965,-32.00437,-0.307965,1.448
-0.284836,-32.00437,-0.284836,1.45
-0.301774,-31.846555,-0.301774,1.452
-0.398589,-32.00437,-0.398589,1.454
-0.397931,-32.00437,-0.397931,1.456
-0.248809,-31.846555,-0.248809,1.458
-0.197374,-32.00437,-0.197374,1.46
-0.31175,-31.925463,-0.31175,1.462
-0.4485,-31.925463,-0.4485,1.464
-0.447642,-32.00437,-0.447642,1.466
-0.372553,-31.925463,-0.372553,1.468
-0.349165,-31.925463,-0.349165,1.47
-0.411528,-32.00437,-0.411528,1.472
-0.285195,-31.925463,-0.285195,1.474
-0.210773,-31.925463,-0.210773,1.476
-0.233733,-32.00437,-0.233733,1.478
-0.222339,-32.00437,-0.222339,1.48
-0.262385,-32.00437,-0.262385,1.482
-0.285138,-32.00437,-0.285138,1.484
-0.399164,-32.00437,-0.399164,1.486
-0.449909,-31.925463,-0.449909,1.488
-0.306296,-31.925463,-0.306296,1.49
-0.300319,-31.925463,-0.300319,1.492
-0.237264,-31.925463,-0.237264,1.494
-0.505667,-32.00437,-0.505667,1.496
-0.675895,-31.846555,-0.675895,1.498
-0.394308,-31.925463,-0.394308,1.5
-0.39368,-32.00437,-0.39368,1.502
-0.398765,-32.00437,-0.398765,1.504
-0.346727,-31.925463,-0.346727,1.506
-0.277771,-31.925463,-0.277771,1.508
-0.323304,-31.925463,-0.323304,1.51
-0.380073,-32.00437,-0.380073,1.512
-0.379506,-31.925463,-0.379506,1.514
-0.304707,-31.925463,-0.304707,1.516
-0.350132,-31.925463,-0.350132,1.518
-0.383951,-32.00437,-0.383951,1.52
-0.406211,-31.925463,-0.406211,1.522
-0.394118,-31.925463,-0.394118,1.524
-0.427757,-31.925463,-0.427757,1.526
-0.432707,-32.00437,-0.432707,1.528
-0.386243,-31.925463,-0.386243,1.53
-0.277156,-31.925463,-0.277156,1.532
-0.277013,-31.925463,-0.277013,1.534
-0.345395,-31.925463,-0.345395,1.536
-0.407788,-32.00437,-0.407788,1.538
-0.521317,-31.925463,-0.521317,1.54
-0.588698,-31.925463,-0.588698,1.542
-0.553016,-32.00437,-0.553016,1.544
-0.443244,-31.925463,-0.443244,1.546
-0.425287,-31.925463,-0.425287,1.548
-0.270356,-32.00437,-0.270356,1.55
-0.167453,-32.00437,-0.167453,1.552
-0.247704,-31.925463,-0.247704,1.554
-0.321916,-32.00437,-0.321916,1.556
-0.173124,-32.00437,-0.173124,1.558
-0.1677,-31.925463,-0.1677,1.56
0.04327,-32.00437,0.04327,1.562
0.059223,-32.00437,0.059223,1.564
-0.056232,-31.925463,-0.056232,1.566
-0.176926,-31.925463,-0.176926,1.568
-0.285708,-31.925463,-0.285708,1.57
-0.268418,-31.925463,-0.268418,1.572
-0.211227,-31.925463,-0.211227,1.574
-0.182824,-31.925463,-0.182824,1.576
-0.34869,-31.925463,-0.34869,1.578
-0.473905,-31.925463,-0.473905,1.58
-0.472979,-31.925463,-0.472979,1.582
-0.392112,-31.925463,-0.392112,1.584
-0.311576,-31.925463,-0.311576,1.586
-0.328446,-31.925463,-0.328446,1.588
-0.322407,-31.925463,-0.322407,1.59
-0.293551,-32.00437,-0.293551,1.592
-0.441834,-31.925463,-0.441834,1.594
-0.423911,-31.925463,-0.423911,1.596
-0.308985,-31.925463,-0.308985,1.598
-0.257344,-31.925463,-0.257344,1.6
-0.302991,-31.846555,-0.302991,1.602
-0.297059,-31.925463,-0.297059,1.604
-0.371097,-31.925463,-0.371097,1.606
-0.559038,-32.00437,-0.559038,1.608
-0.512085,-31.925463,-0.512085,1.61
-0.465323,-31.925463,-0.465323,1.612
-0.447303,-31.925463,-0.447303,1.614
-0.30373,-31.925463,-0.30373,1.616
-0.269242,-31.925463,-0.269242,1.618
-0.360523,-31.846555,-0.360523,1.62
-0.537086,-31.846555,-0.537086,1.622
-0.364594,-31.925463,-0.364594,1.624
-0.341278,-31.925463,-0.341278,1.626
-0.392291,-31.925463,-0.392291,1.628
-0.34602,-31.846555,-0.34602,1.63
-0.351332,-31.925463,-0.351332,1.632
-0.293809,-31.925463,-0.293809,1.634
-0.350729,-31.925463,-0.350729,1.636
-0.344603,-31.925463,-0.344603,1.638
-0.292819,-31.925463,-0.292819,1.64
-0.418268,-31.925463,-0.418268,1.642
-0.360473,-31.925463,-0.360473,1.644
-0.251522,-31.925463,-0.251522,1.646
-0.308618,-31.925463,-0.308618,1.648
-0.35977,-31.925463,-0.35977,1.65
-0.496368,-31.846555,-0.496368,1.652
-0.512488,-31.925463,-0.512488,1.654
-0.471439,-31.925463,-0.471439,1.656
-0.390584,-31.925463,-0.390584,1.658
-0.441398,-31.925463,-0.441398,1.66
-0.320694,-31.846555,-0.320694,1.662
-0.308981,-31.925463,-0.308981,1.664
-0.342999,-31.925463,-0.342999,1.666
-0.291224,-31.925463,-0.291224,1.668
-0.188268,-31.925463,-0.188268,1.67
-0.211363,-31.846555,-0.211363,1.672
-0.251495,-31.925463,-0.251495,1.674
-0.337147,-31.925463,-0.337147,1.676
-0.348215,-31.925463,-0.348215,1.678
-0.364947,-31.846555,-0.364947,1.68
-0.427294,-31.925463,-0.427294,1.682
-0.449413,-31.925463,-0.449413,1.684
-0.557095,-31.925463,-0.557095,1.686
-0.532997,-31.925463,-0.532997,1.688
-0.37766,-31.925463,-0.37766,1.69
-0.274352,-31.925463,-0.274352,1.692
-0.314226,-31.925463,-0.314226,1.694
-0.428171,-31.925463,-0.428171,1.696
-0.353209,-31.925463,-0.353209,1.698
-0.250003,-31.925463,-0.250003,1.7
-0.227164,-31.925463,-0.227164,1.702
-0.255814,-31.925463,-0.255814,1.704
-0.364291,-31.925463,-0.364291,1.706
-0.415221,-31.925463,-0.415221,1.708
-0.40884,-31.925463,-0.40884,1.71
-0.425325,-31.846555,-0.425325,1.712
-0.413191,-31.846555,-0.413191,1.714
-0.344003,-32.00437,-0.344003,1.716
-0.315071,-31.846555,-0.315071,1.718
-0.360492,-31.925463,-0.360492,1.72
-0.354334,-31.925463,-0.354334,1.722
-0.319651,-31.925463,-0.319651,1.724
-0.250848,-32.00437,-0.250848,1.726
-0.330796,-31.925463,-0.330796,1.728
-0.27908,-31.925463,-0.27908,1.73
-0.410306,-31.925463,-0.410306,1.732
-0.415368,-31.846555,-0.415368,1.734
-0.431829,-31.925463,-0.431829,1.736
-0.408251,-32.00437,-0.408251,1.738
-0.361927,-31.846555,-0.361927,1.74
-0.287242,-31.925463,-0.287242,1.742
-0.292807,-31.925463,-0.292807,1.744
-0.28122,-31.925463,-0.28122,1.746
-0.326784,-31.925463,-0.326784,1.748
-0.377873,-31.846555,-0.377873,1.75
-0.234601,-31.925463,-0.234601,1.752
-0.126179,-31.846555,-0.126179,1.754
-0.412215,-31.925463,-0.412215,1.756
-0.7085,-31.846555,-0.7085,1.758
-0.426826,-31.925463,-0.426826,1.76
-0.306195,-31.925463,-0.306195,1.762
-0.231741,-31.925463,-0.231741,1.764
-0.28322,-31.925463,-0.28322,1.766
-0.34591,-31.925463,-0.34591,1.768
-0.328398,-31.925463,-0.328398,1.77
-0.310959,-31.925463,-0.310959,1.772
-0.173675,-31.925463,-0.173675,1.774
-0.179713,-31.925463,-0.179713,1.776
-0.242831,-31.846555,-0.242831,1.778
-0.317112,-31.925463,-0.317112,1.78
-0.345407,-31.925463,-0.345407,1.782
-0.322194,-31.925463,-0.322194,1.784
-0.350468,-31.925463,-0.350468,1.786
-0.230159,-31.925463,-0.230159,1.788
-0.264523,-32.00437,-0.264523,1.79
-0.412953,-31.925463,-0.412953,1.792
-0.418016,-31.925463,-0.418016,1.794
-0.394507,-31.925463,-0.394507,1.796
-0.279729,-31.925463,-0.279729,1.798
-0.233946,-31.925463,-0.233946,1.8
-0.188351,-31.925463,-0.188351,1.802
-0.177207,-31.846555,-0.177207,1.804
-0.297447,-32.00437,-0.297447,1.806
-0.411485,-31.846555,-0.411485,1.808
-0.43369,-31.925463,-0.43369,1.81
-0.478645,-32.00437,-0.478645,1.812
-0.477733,-31.846555,-0.477733,1.814
-0.328355,-31.925463,-0.328355,1.816
-0.248113,-31.925463,-0.248113,1.818
-0.396614,-31.925463,-0.396614,1.82
-0.458851,-31.925463,-0.458851,1.822
-0.320972,-31.925463,-0.320972,1.824
-0.337836,-31.925463,-0.337836,1.826
-0.217584,-31.925463,-0.217584,1.828
-0.269135,-31.925463,-0.269135,1.83
-0.366158,-31.925463,-0.366158,1.832
-0.234371,-31.925463,-0.234371,1.834
-0.342959,-31.846555,-0.342959,1.836
-0.42826,-32.00437,-0.42826,1.838
-0.376165,-31.925463,-0.376165,1.84
-0.318572,-31.925463,-0.318572,1.842
-0.301187,-32.00437,-0.301187,1.844
-0.420922,-31.925463,-0.420922,1.846
-0.557297,-31.925463,-0.557297,1.848
-0.538933,-31.925463,-0.538933,1.85
-0.520643,-31.925463,-0.520643,1.852
-0.468165,-31.925463,-0.468165,1.854
-0.450162,-31.846555,-0.450162,1.856
-0.443654,-32.00437,-0.443654,1.858
-0.585639,-31.925463,-0.585639,1.86
-0.498629,-31.925463,-0.498629,1.862
-0.383422,-31.925463,-0.383422,1.864
-0.354341,-31.925463,-0.354341,1.866
-0.268277,-31.925463,-0.268277,1.868
-0.228248,-31.846555,-0.228248,1.87
-0.245488,-31.925463,-0.245488,1.872
-0.291209,-31.925463,-0.291209,1.874
-0.502343,-31.925463,-0.502343,1.876
-0.592694,-31.925463,-0.592694,1.878
-0.397158,-31.925463,-0.397158,1.88
-0.379442,-32.00437,-0.379442,1.882
-0.493135,-31.925463,-0.493135,1.884
-0.514997,-31.925463,-0.514997,1.886
-0.3883,-31.925463,-0.3883,1.888
-0.342065,-31.846555,-0.342065,1.89
-0.330283,-31.925463,-0.330283,1.892
-0.278576,-31.925463,-0.278576,1.894
-0.307026,-31.925463,-0.307026,1.896
-0.478118,-31.925463,-0.478118,1.898
-0.448647,-31.925463,-0.448647,1.9
-0.356483,-31.925463,-0.356483,1.902
-0.321799,-31.925463,-0.321799,1.904
-0.31581,-31.925463,-0.31581,1.906
-0.3955,-31.925463,-0.3955,1.908
-0.400629,-31.925463,-0.400629,1.91
-0.365764,-31.925463,-0.365764,1.912
-0.279649,-31.925463,-0.279649,1.914
-0.405169,-31.925463,-0.405169,1.916
-0.62154,-31.925463,-0.62154,1.918
-0.540086,-31.846555,-0.540086,1.92
-0.481805,-31.925463,-0.481805,1.922
-0.378079,-31.846555,-0.378079,1.924
-0.474639,-31.925463,-0.474639,1.926
-0.479438,-31.925463,-0.479438,1.928
-0.330037,-31.925463,-0.330037,1.93
-0.363978,-31.846555,-0.363978,1.932
-0.39207,-31.925463,-0.39207,1.934
-0.431467,-31.925463,-0.431467,1.936
-0.419309,-31.846555,-0.419309,1.938
-0.39007,-31.846555,-0.39007,1.94
-0.469446,-31.925463,-0.469446,1.942
-0.439999,-31.925463,-0.439999,1.944
-0.35928,-31.846555,-0.35928,1.946
-0.353126,-31.846555,-0.353126,1.948
-0.489754,-31.846555,-0.489754,1.95
-0.488774,-31.846555,-0.488774,1.952
-0.436404,-31.925463,-0.436404,1.954
-0.42993,-31.846555,-0.42993,1.956
-0.3778,-31.925463,-0.3778,1.958
-0.400117,-31.925463,-0.400117,1.96
-0.39379,-31.925463,-0.39379,1.962
-0.421751,-31.925463,-0.421751,1.964
-0.369653,-31.925463,-0.369653,1.966
-0.36916,-31.925463,-0.36916,1.968
-0.511427,-31.925463,-0.511427,1.97
-0.493221,-31.846555,-0.493221,1.972
-0.412275,-31.846555,-0.412275,1.974
-0.308819,-31.846555,-0.308819,1.976
-0.137262,-31.846555,-0.137262,1.978
-0.246216,-31.925463,-0.246216,1.98
-0.366145,-31.925463,-0.366145,1.982
-0.417059,-31.846555,-0.417059,1.984
-0.41066,-31.925463,-0.41066,1.986
-0.45568,-31.925463,-0.45568,1.988
-0.511935,-31.846555,-0.511935,1.99
-0.499435,-31.846555,-0.499435,1.992
-0.509825,-31.925463,-0.509825,1.994
-0.348862,-31.846555,-0.348862,1.996
-0.228531,-31.925463,-0.228531,1.998
-0.394209,-31.846555,-0.394209,2
-0.473554,-31.925463,-0.473554,2.002
-0.415524,-31.925463,-0.415524,2.004
-0.449097,-31.846555,-0.449097,2.006
-0.425428,-31.925463,-0.425428,2.008
-0.424697,-31.846555,-0.424697,2.01
-0.481071,-31.846555,-0.481071,2.012
-0.400165,-31.925463,-0.400165,2.014
-0.331011,-31.925463,-0.331011,2.016
-0.376346,-31.846555,-0.376346,2.018
-0.432916,-31.846555,-0.432916,2.02
-0.300813,-31.925463,-0.300813,2.022
-0.249196,-31.925463,-0.249196,2.024
-0.374811,-31.846555,-0.374811,2.026
-0.539883,-31.846555,-0.539883,2.028
-0.56152,-31.846555,-0.56152,2.03
-0.383204,-31.925463,-0.383204,2.032
-0.416901,-31.925463,-0.416901,2.034
-0.433328,-31.846555,-0.433328,2.036
-0.346901,-31.925463,-0.346901,2.038
-0.352192,-31.846555,-0.352192,2.04
-0.511641,-31.846555,-0.511641,2.042
-0.459153,-31.925463,-0.459153,2.044
-0.24128,-31.925463,-0.24128,2.046
-0.326947,-31.925463,-0.326947,2.048
-0.35516,-31.846555,-0.35516,2.05
-0.326154,-31.846555,-0.326154,2.052
-0.331529,-31.846555,-0.331529,2.054
-0.331171,-31.846555,-0.331171,2.056
-0.399339,-31.846555,-0.399339,2.058
-0.461516,-31.846555,-0.461516,2.06
-0.37497,-31.846555,-0.37497,2.062
-0.368722,-31.846555,-0.368722,2.064
-0.465285,-31.925463,-0.465285,2.066
-0.458665,-31.925463,-0.458665,2.068
-0.446362,-31.925463,-0.446362,2.07
-0.439818,-31.846555,-0.439818,2.072
-0.387617,-31.846555,-0.387617,2.074
-0.461256,-31.846555,-0.461256,2.076
-0.551724,-31.925463,-0.551724,2.078
-0.459089,-31.846555,-0.459089,2.08
-0.281178,-31.846555,-0.281178,2.082
-0.218202,-31.846555,-0.218202,2.084
-0.480973,-31.925463,-0.480973,2.086
-0.411468,-31.846555,-0.411468,2.088
-0.307985,-31.846555,-0.307985,2.09
-0.44476,-31.846555,-0.44476,2.092
-0.363981,-31.846555,-0.363981,2.094
-0.403449,-31.846555,-0.403449,2.096
-0.391362,-31.846555,-0.391362,2.098
-0.276538,-31.846555,-0.276538,2.1
-0.447701,-31.846555,-0.447701,2.102
-0.572479,-31.846555,-0.572479,2.104
-0.376967,-31.846555,-0.376967,2.106
-0.347853,-31.925463,-0.347853,2.108
-0.370252,-31.846555,-0.370252,2.11
-0.403979,-31.846555,-0.403979,2.112
-0.500381,-31.925463,-0.500381,2.114
-0.48218,-31.846555,-0.48218,2.116
-0.42979,-31.925463,-0.42979,2.118
-0.446137,-31.925463,-0.446137,2.12
-0.302528,-31.846555,-0.302528,2.122
-0.296555,-31.846555,-0.296555,2.124
-0.341999,-31.846555,-0.341999,2.126
-0.415809,-31.846555,-0.415809,2.128
-0.512156,-31.846555,-0.512156,2.13
-0.47106,-31.846555,-0.47106,2.132
-0.315924,-31.846555,-0.315924,2.134
-0.378416,-31.846555,-0.378416,2.136
-0.457782,-31.925463,-0.457782,2.138
-0.416906,-31.846555,-0.416906,2.14
-0.416168,-31.846555,-0.416168,2.142
-0.426853,-31.846555,-0.426853,2.144
-0.271894,-31.846555,-0.271894,2.146
-0.180383,-31.767648,-0.180383,2.148
-0.409027,-31.925463,-0.409027,2.15
-0.40832,-31.846555,-0.40832,2.152
-0.407615,-31.846555,-0.407615,2.154
-0.424043,-31.846555,-0.424043,2.156
-0.37759,-31.925463,-0.37759,2.158
-0.38843,-31.846555,-0.38843,2.16
-0.439196,-31.846555,-0.439196,2.162
-0.42123,-31.846555,-0.42123,2.164
-0.369075,-31.846555,-0.369075,2.166
-0.351394,-31.925463,-0.351394,2.168
-0.305235,-31.925463,-0.305235,2.17
-0.299236,-31.846555,-0.299236,2.172
-0.413179,-31.846555,-0.413179,2.174
-0.412448,-31.846555,-0.412448,2.176
-0.44027,-31.846555,-0.44027,2.178
-0.393743,-31.846555,-0.393743,2.18
-0.307434,-31.846555,-0.307434,2.182
-0.398499,-31.846555,-0.398499,2.184
-0.472058,-31.925463,-0.472058,2.186
-0.44824,-31.846555,-0.44824,2.188
-0.413097,-31.846555,-0.413097,2.19
-0.372387,-31.846555,-0.372387,2.192
-0.348974,-31.925463,-0.348974,2.194
-0.337077,-31.925463,-0.337077,2.196
-0.542221,-31.925463,-0.542221,2.198
-0.512399,-31.846555,-0.512399,2.2
-0.448436,-31.846555,-0.448436,2.202
-0.447548,-31.846555,-0.447548,2.204
-0.538026,-31.925463,-0.538026,2.206
-0.422561,-31.846555,-0.422561,2.208
-0.273306,-31.925463,-0.273306,2.21
-0.478702,-31.925463,-0.478702,2.212
-0.574759,-31.846555,-0.574759,2.214
-0.499111,-31.846555,-0.499111,2.216
-0.469453,-31.846555,-0.469453,2.218
-0.308579,-31.925463,-0.308579,2.22
-0.348224,-31.846555,-0.348224,2.222
-0.524754,-31.846555,-0.524754,2.224
-0.523539,-31.846555,-0.523539,2.226
-0.265364,-31.846555,-0.265364,2.228
-0.048218,-31.846555,-0.048218,2.23
-0.037535,-31.846555,-0.037535,2.232
-0.06687,-31.925463,-0.06687,2.234
-0.170322,-31.925463,-0.170322,2.236
-0.284771,-31.925463,-0.284771,2.238
-0.410172,-31.846555,-0.410172,2.24
-0.460824,-31.846555,-0.460824,2.242
-0.334248,-31.846555,-0.334248,2.244
-0.425182,-31.846555,-0.425182,2.246
-0.412956,-31.846555,-0.412956,2.248
-0.337966,-31.846555,-0.337966,2.25
-0.337518,-31.846555,-0.337518,2.252
-0.485538,-31.846555,-0.485538,2.254
-0.484483,-31.846555,-0.484483,2.256
-0.357803,-31.846555,-0.357803,2.258
-0.328718,-31.846555,-0.328718,2.26
-0.448219,-31.846555,-0.448219,2.262
-0.418761,-31.846555,-0.418761,2.264
-0.429395,-31.846555,-0.429395,2.266
-0.428564,-31.846555,-0.428564,2.268
-0.302108,-31.846555,-0.302108,2.27
-0.301797,-31.925463,-0.301797,2.272
-0.295776,-31.767648,-0.295776,2.274
-0.301201,-31.846555,-0.301201,2.276
-0.386548,-31.846555,-0.386548,2.278
-0.437283,-31.846555,-0.437283,2.28
-0.459257,-31.767648,-0.459257,2.282
-0.429747,-31.846555,-0.429747,2.284
-0.423198,-31.846555,-0.423198,2.286
-0.353861,-31.846555,-0.353861,2.288
-0.319069,-31.846555,-0.319069,2.29
-0.318682,-31.846555,-0.318682,2.292
-0.312585,-31.846555,-0.312585,2.294
-0.386458,-31.846555,-0.386458,2.296
-0.442896,-31.846555,-0.442896,2.298
-0.419158,-31.846555,-0.419158,2.3
-0.504011,-31.767648,-0.504011,2.302
-0.49715,-31.925463,-0.49715,2.304
-0.444633,-31.846555,-0.444633,2.306
-0.455143,-31.846555,-0.455143,2.308
-0.505581,-31.846555,-0.505581,2.31
-0.5501,-31.846555,-0.5501,2.312
-0.457387,-31.925463,-0.457387,2.314
-0.32508,-31.846555,-0.32508,2.316
-0.341783,-31.925463,-0.341783,2.318
-0.358417,-31.846555,-0.358417,2.32
-0.357851,-31.846555,-0.357851,2.322
-0.374418,-31.767648,-0.374418,2.324
-0.493701,-31.846555,-0.493701,2.326
-0.509709,-31.846555,-0.509709,2.328
-0.36005,-31.846555,-0.36005,2.33
-0.3195,-31.846555,-0.3195,2.332
-0.301956,-31.925463,-0.301956,2.334
-0.295905,-31.846555,-0.295905,2.336
-0.404084,-31.846555,-0.404084,2.338
-0.431876,-31.846555,-0.431876,2.34
-0.431,-31.925463,-0.431,2.342
-0.344472,-31.846555,-0.344472,2.344
-0.378214,-31.846555,-0.378214,2.346
-0.474631,-31.846555,-0.474631,2.348
-0.387921,-31.846555,-0.387921,2.35
-0.284435,-31.846555,-0.284435,2.352
-0.312709,-31.846555,-0.312709,2.354
-0.466494,-31.846555,-0.466494,2.356
-0.425498,-31.767648,-0.425498,2.358
-0.350405,-31.925463,-0.350405,2.36
-0.327013,-31.846555,-0.327013,2.362
-0.275164,-31.925463,-0.275164,2.364
-0.303473,-31.846555,-0.303473,2.366
-0.360216,-31.846555,-0.360216,2.368
-0.376754,-31.925463,-0.376754,2.37
-0.307569,-31.846555,-0.307569,2.372
-0.398556,-31.846555,-0.398556,2.374
-0.357832,-31.767648,-0.357832,2.376
-0.311563,-31.846555,-0.311563,2.378
-0.522448,-31.925463,-0.522448,2.38
-0.486923,-31.846555,-0.486923,2.382
-0.445832,-31.846555,-0.445832,2.384
-0.484852,-31.846555,-0.484852,2.386
-0.386663,-31.925463,-0.386663,2.388
-0.345978,-31.846555,-0.345978,2.39
-0.356852,-31.925463,-0.356852,2.392
-0.321999,-31.846555,-0.321999,2.394
-0.270156,-31.846555,-0.270156,2.396
-0.224236,-31.846555,-0.224236,2.398
-0.235608,-31.846555,-0.235608,2.4
-0.304037,-31.846555,-0.304037,2.402
-0.28653,-31.846555,-0.28653,2.404
-0.257675,-31.846555,-0.257675,2.406
-0.537294,-31.846555,-0.537294,2.408
-0.490278,-31.846555,-0.490278,2.41
-0.380639,-31.846555,-0.380639,2.412
-0.47131,-31.846555,-0.47131,2.414
-0.533055,-31.846555,-0.533055,2.416
-0.400395,-31.925463,-0.400395,2.418
-0.279698,-31.925463,-0.279698,2.42
-0.325094,-31.846555,-0.325094,2.422
-0.347462,-31.925463,-0.347462,2.424
-0.22127,-31.846555,-0.22127,2.426
-0.232642,-31.925463,-0.232642,2.428
-0.27823,-31.846555,-0.27823,2.43
-0.312211,-31.846555,-0.312211,2.432
-0.346052,-31.925463,-0.346052,2.434
-0.294099,-31.846555,-0.294099,2.436
-0.299461,-31.846555,-0.299461,2.438
-0.361905,-31.846555,-0.361905,2.44
-0.304175,-31.846555,-0.304175,2.442
-0.338047,-31.846555,-0.338047,2.444
-0.366068,-31.846555,-0.366068,2.446
-0.336871,-31.846555,-0.336871,2.448
-0.364896,-31.846555,-0.364896,2.45
-0.352833,-31.846555,-0.352833,2.452
-0.243743,-31.925463,-0.243743,2.454
-0.249307,-31.846555,-0.249307,2.456
-0.28911,-31.846555,-0.28911,2.458
-0.191702,-31.846555,-0.191702,2.46
-0.203189,-31.846555,-0.203189,2.462
-0.300285,-31.846555,-0.300285,2.464
-0.459796,-31.846555,-0.459796,2.466
-0.378818,-31.925463,-0.378818,2.468
-0.343854,-31.925463,-0.343854,2.47
-0.383266,-31.846555,-0.383266,2.472
-0.336862,-31.846555,-0.336862,2.474
-0.267805,-31.925463,-0.267805,2.476
-0.273265,-31.846555,-0.273265,2.478
-0.330095,-31.846555,-0.330095,2.48
-0.369562,-31.925463,-0.369562,2.482
-0.306079,-31.925463,-0.306079,2.484
-0.220015,-31.925463,-0.220015,2.486
-0.299904,-31.846555,-0.299904,2.488
-0.465119,-31.846555,-0.465119,2.49
-0.412663,-31.846555,-0.412663,2.492
-0.343291,-31.846555,-0.343291,2.494
-0.302753,-31.846555,-0.302753,2.496
-0.376587,-31.925463,-0.376587,2.498
-0.381594,-31.925463,-0.381594,2.5
-0.380869,-31.925463,-0.380869,2.502
-0.414407,-31.846555,-0.414407,2.504
-0.373573,-31.846555,-0.373573,2.506
-0.315774,-31.925463,-0.315774,2.508
-0.383839,-31.846555,-0.383839,2.51
-0.445913,-31.846555,-0.445913,2.512
-0.456338,-31.846555,-0.456338,2.514
-0.255437,-31.846555,-0.255437,2.516
-0.238089,-31.925463,-0.238089,2.518
-0.374991,-31.846555,-0.374991,2.52
-0.568434,-31.925463,-0.568434,2.522
-0.378491,-31.846555,-0.378491,2.524
-0.332082,-31.846555,-0.332082,2.526
-0.377228,-31.925463,-0.377228,2.528
-0.45074,-31.846555,-0.45074,2.53
-0.444004,-31.925463,-0.444004,2.532
-0.448715,-31.925463,-0.448715,2.534
-0.476246,-31.846555,-0.476246,2.536
-0.292381,-31.846555,-0.292381,2.538
-0.252027,-31.925463,-0.252027,2.54
-0.377436,-31.925463,-0.377436,2.542
-0.439518,-31.846555,-0.439518,2.544
-0.472792,-31.925463,-0.472792,2.546
-0.488796,-31.846555,-0.488796,2.548
-0.44763,-31.925463,-0.44763,2.55
-0.366659,-31.846555,-0.366659,2.552
-0.343121,-31.846555,-0.343121,2.554
-0.462437,-31.925463,-0.462437,2.556
-0.501318,-31.846555,-0.501318,2.558
-0.454382,-31.846555,-0.454382,2.56
-0.367665,-31.925463,-0.367665,2.562
-0.361246,-31.846555,-0.361246,2.564
-0.463349,-31.925463,-0.463349,2.566
-0.513639,-31.846555,-0.513639,2.568
-0.449514,-31.925463,-0.449514,2.57
-0.379939,-31.846555,-0.379939,2.572
-0.470537,-31.846555,-0.470537,2.574
-0.503659,-31.925463,-0.503659,2.576
-0.519512,-31.925463,-0.519512,2.578
-0.461064,-31.925463,-0.461064,2.58
-0.368591,-31.925463,-0.368591,2.582
-0.247944,-31.846555,-0.247944,2.584
-0.316232,-31.846555,-0.316232,2.586
-0.418501,-31.846555,-0.418501,2.588
-0.400434,-31.846555,-0.400434,2.59
-0.530906,-31.846555,-0.530906,2.592
-0.506664,-31.925463,-0.506664,2.594
-0.33976,-31.846555,-0.33976,2.596
-0.322008,-31.925463,-0.322008,2.598
-0.304327,-31.846555,-0.304327,2.6
-0.383794,-31.846555,-0.383794,2.602
-0.491485,-31.925463,-0.491485,2.604
-0.444555,-31.846555,-0.444555,2.606
-0.335001,-31.846555,-0.335001,2.608
-0.368654,-31.846555,-0.368654,2.61
-0.402167,-31.846555,-0.402167,2.612
-0.361307,-31.846555,-0.361307,2.614
-0.383427,-31.846555,-0.383427,2.616
-0.445428,-31.925463,-0.445428,2.618
-0.47862,-31.925463,-0.47862,2.62
-0.465993,-31.925463,-0.465993,2.622
-0.396312,-31.846555,-0.396312,2.624
-0.366887,-31.925463,-0.366887,2.626
-0.49176,-31.925463,-0.49176,2.628
-0.347734,-31.846555,-0.347734,2.63
-0.381317,-31.925463,-0.381317,2.632
-0.631753,-31.846555,-0.631753,2.634
-0.458596,-31.925463,-0.458596,2.636
-0.286147,-31.846555,-0.286147,2.638
-0.274293,-31.846555,-0.274293,2.64
-0.319589,-31.846555,-0.319589,2.642
-0.313307,-31.925463,-0.313307,2.644
-0.32418,-31.925463,-0.32418,2.646
-0.466346,-31.925463,-0.466346,2.648
-0.453748,-31.846555,-0.453748,2.65
-0.389807,-31.925463,-0.389807,2.652
-0.400361,-31.846555,-0.400361,2.654
-0.473683,-31.925463,-0.473683,2.656
-0.455338,-31.925463,-0.455338,2.658
-0.357121,-31.846555,-0.357121,2.66
-0.247886,-31.846555,-0.247886,2.662
-0.241882,-31.846555,-0.241882,2.664
-0.304428,-31.846555,-0.304428,2.666
-0.292482,-31.846555,-0.292482,2.668
-0.543258,-31.925463,-0.543258,2.67
-0.615985,-31.846555,-0.615985,2.672
-0.431447,-31.846555,-0.431447,2.674
-0.367579,-31.846555,-0.367579,2.676
-0.429599,-31.846555,-0.429599,2.678
-0.457101,-31.925463,-0.457101,2.68
-0.318889,-31.846555,-0.318889,2.682
-0.272607,-31.925463,-0.272607,2.684
-0.3293,-31.846555,-0.3293,2.686
-0.534228,-31.846555,-0.534228,2.688
-0.806837,-31.925463,-0.806837,2.69
-0.547266,-31.846555,-0.547266,2.692
-0.442934,-31.925463,-0.442934,2.694
-0.373288,-31.925463,-0.373288,2.696
-0.161169,-31.925463,-0.161169,2.698
-0.263987,-31.846555,-0.263987,2.7
-0.3207,-31.846555,-0.3207,2.702
-0.291525,-31.925463,-0.291525,2.704
-0.291021,-31.846555,-0.291021,2.706
-0.301939,-31.846555,-0.301939,2.708
-0.375624,-31.925463,-0.375624,2.71
-0.546082,-31.925463,-0.546082,2.712
-0.56166,-31.846555,-0.56166,2.714
-0.417283,-31.846555,-0.417283,2.716
-0.393411,-31.925463,-0.393411,2.718
-0.409608,-31.925463,-0.409608,2.72
-0.437158,-31.846555,-0.437158,2.722
-0.430331,-31.925463,-0.430331,2.724
-0.452082,-31.846555,-0.452082,2.726
-0.4509,-31.925463,-0.4509,2.728
-0.4383,-31.846555,-0.4383,2.73
-0.454302,-31.846555,-0.454302,2.732
-0.447394,-31.925463,-0.447394,2.734
-0.406251,-31.846555,-0.406251,2.736
-0.393826,-31.846555,-0.393826,2.738
-0.36432,-31.925463,-0.36432,2.74
-0.192175,-31.846555,-0.192175,2.742
-0.420457,-31.846555,-0.420457,2.744
-0.516465,-31.846555,-0.516465,2.746
-0.48074,-31.846555,-0.48074,2.748
-0.433739,-31.846555,-0.433739,2.75
-0.398348,-31.925463,-0.398348,2.752
-0.363101,-31.925463,-0.363101,2.754
-0.327996,-31.846555,-0.327996,2.756
-0.361559,-31.846555,-0.361559,2.758
-0.417823,-31.846555,-0.417823,2.76
-0.353939,-31.925463,-0.353939,2.762
-0.324577,-31.846555,-0.324577,2.764
-0.380988,-31.846555,-0.380988,2.766
-0.397195,-31.846555,-0.397195,2.768
-0.498989,-31.846555,-0.498989,2.77
-0.668886,-31.925463,-0.668886,2.772
-0.58112,-31.925463,-0.58112,2.774
-0.425186,-31.846555,-0.425186,2.776
-0.464039,-31.846555,-0.464039,2.778
-0.445628,-31.925463,-0.445628,2.78
-0.318794,-31.846555,-0.318794,2.782
-0.300975,-31.846555,-0.300975,2.784
-0.340331,-31.925463,-0.340331,2.786
-0.293869,-31.925463,-0.293869,2.788
-0.29328,-31.846555,-0.29328,2.79
-0.309823,-31.846555,-0.309823,2.792
-0.469055,-31.925463,-0.469055,2.794
-0.39922,-31.925463,-0.39922,2.796
-0.318249,-31.846555,-0.318249,2.798
-0.357524,-31.846555,-0.357524,2.8
-0.402348,-31.846555,-0.402348,2.802
-0.304228,-31.846555,-0.304228,2.804
-0.286454,-31.925463,-0.286454,2.806
-0.388668,-31.846555,-0.388668,2.808
-0.536145,-31.846555,-0.536145,2.81
-0.523125,-31.846555,-0.523125,2.812
-0.453053,-31.846555,-0.453053,2.814
-0.394686,-31.846555,-0.394686,2.816
-0.302295,-31.846555,-0.302295,2.818
-0.233122,-31.925463,-0.233122,2.82
-0.232756,-31.846555,-0.232756,2.822
-0.409411,-31.846555,-0.409411,2.824
-0.476844,-31.925463,-0.476844,2.826
-0.418372,-31.925463,-0.418372,2.828
-0.40582,-31.925463,-0.40582,2.83
-0.393317,-31.846555,-0.393317,2.832
-0.397994,-31.846555,-0.397994,2.834
-0.39694,-31.846555,-0.39694,2.836
-0.361627,-31.925463,-0.361627,2.838
-0.469215,-31.846555,-0.469215,2.84
-0.40505,-31.846555,-0.40505,2.842
-0.358277,-31.925463,-0.358277,2.844
-0.368797,-31.846555,-0.368797,2.846
-0.373563,-31.925463,-0.373563,2.848
-0.332624,-31.846555,-0.332624,2.85
-0.320404,-31.846555,-0.320404,2.852
-0.325363,-31.925463,-0.325363,2.854
-0.410245,-31.846555,-0.410245,2.856
-0.431964,-31.925463,-0.431964,2.858
-0.453591,-32.00437,-0.453591,2.86
-0.492259,-31.846555,-0.492259,2.862
-0.376587,-31.767648,-0.376587,2.864
-0.318491,-31.925463,-0.318491,2.866
-0.443361,-31.925463,-0.443361,2.868
-0.447801,-31.846555,-0.447801,2.87
-0.46364,-31.925463,-0.46364,2.872
-0.559357,-31.925463,-0.559357,2.874
-0.483369,-31.846555,-0.483369,2.876
-0.459083,-31.925463,-0.459083,2.878
-0.463445,-31.925463,-0.463445,2.88
-0.410684,-31.925463,-0.410684,2.882
-0.255351,-31.925463,-0.255351,2.884
-0.106364,-31.846555,-0.106364,2.886
-0.140718,-31.925463,-0.140718,2.888
-0.089276,-31.846555,-0.089276,2.89
-0.038046,-31.846555,-0.038046,2.892
-0.135495,-31.925463,-0.135495,2.894
-0.158311,-31.925463,-0.158311,2.896
-0.123931,-31.925463,-0.123931,2.898
-0.261001,-31.846555,-0.261001,2.9
-0.357536,-31.846555,-0.357536,2.902
-0.390862,-31.846555,-0.390862,2.904
-0.424048,-31.925463,-0.424048,2.906
-0.417125,-31.846555,-0.417125,2.908
-0.318862,-31.925463,-0.318862,2.91
-0.295235,-31.925463,-0.295235,2.912
-0.368779,-31.925463,-0.368779,2.914
-0.45344,-31.846555,-0.45344,2.916
-0.429256,-31.925463,-0.429256,2.918
-0.565058,-31.846555,-0.565058,2.92
-0.534701,-31.846555,-0.534701,2.922
-0.430232,-31.846555,-0.430232,2.924
-0.480366,-31.846555,-0.480366,2.926
-0.547423,-31.846555,-0.547423,2.928
-0.437183,-31.846555,-0.437183,2.93
-0.315971,-31.846555,-0.315971,2.932
-0.320881,-31.846555,-0.320881,2.934
-0.251536,-31.846555,-0.251536,2.936
-0.211025,-31.925463,-0.211025,2.938
-0.307727,-31.925463,-0.307727,2.94
-0.404033,-31.925463,-0.404033,2.942
-0.448548,-31.925463,-0.448548,2.944
-0.355831,-31.846555,-0.355831,2.946
-0.269203,-31.846555,-0.269203,2.948
-0.399921,-31.925463,-0.399921,2.95
-0.381633,-31.925463,-0.381633,2.952
-0.277763,-31.846555,-0.277763,2.954
-0.271393,-31.846555,-0.271393,2.956
-0.339282,-31.925463,-0.339282,2.958
-0.361209,-31.925463,-0.361209,2.96
-0.320231,-31.925463,-0.320231,2.962
-0.336522,-31.846555,-0.336522,2.964
-0.461241,-31.846555,-0.461241,2.966
-0.482661,-31.925463,-0.482661,2.968
-0.452598,-31.846555,-0.452598,2.97
-0.365552,-31.925463,-0.365552,2.972
-0.307412,-31.925463,-0.307412,2.974
-0.323743,-31.846555,-0.323743,2.976
-0.334296,-31.925463,-0.334296,2.978
-0.344804,-31.846555,-0.344804,2.98
-0.343846,-31.846555,-0.343846,2.982
-0.337181,-31.846555,-0.337181,2.984
-0.32483,-31.925463,-0.32483,2.986
-0.363922,-31.925463,-0.363922,2.988
-0.402852,-31.846555,-0.402852,2.99
-0.350255,-31.925463,-0.350255,2.992
-0.343554,-31.846555,-0.343554,2.994
-0.399693,-31.925463,-0.399693,2.996
-0.341393,-31.925463,-0.341393,2.998
-0.420378,-31.846555,-0.420378,3
-0.447644,-31.846555,-0.447644,3.002
-0.406272,-31.925463,-0.406272,3.004
-0.313675,-31.846555,-0.313675,3.006
-0.232876,-31.925463,-0.232876,3.008
-0.272324,-31.925463,-0.272324,3.01
-0.437236,-31.846555,-0.437236,3.012
-0.298823,-31.925463,-0.298823,3.014
-0.320865,-31.846555,-0.320865,3.016
-0.365656,-31.925463,-0.365656,3.018
-0.427393,-31.846555,-0.427393,3.02
-0.334696,-31.925463,-0.334696,3.022
-0.213826,-31.925463,-0.213826,3.024
-0.304731,-31.925463,-0.304731,3.026
-0.412394,-31.925463,-0.412394,3.028
-0.405407,-31.925463,-0.405407,3.03
-0.364185,-31.925463,-0.364185,3.032
-0.385943,-31.846555,-0.385943,3.034
-0.401899,-31.925463,-0.401899,3.036
-0.26932,-31.925463,-0.26932,3.038
-0.280041,-31.925463,-0.280041,3.04
-0.382081,-31.925463,-0.382081,3.042
-0.392336,-31.925463,-0.392336,3.044
-0.402548,-31.925463,-0.402548,3.046
-0.384163,-32.00437,-0.384163,3.048
-0.354431,-31.925463,-0.354431,3.05
-0.387632,-31.925463,-0.387632,3.052
-0.386434,-31.846555,-0.386434,3.054
-0.23106,-31.925463,-0.23106,3.056
-0.344706,-31.925463,-0.344706,3.058
-0.514987,-31.925463,-0.514987,3.06
-0.290557,-31.925463,-0.290557,3.062
-0.221223,-31.925463,-0.221223,3.064
-0.312061,-31.846555,-0.312061,3.066
-0.299739,-32.00437,-0.299739,3.068
-0.224654,-31.846555,-0.224654,3.07
-0.167006,-32.00437,-0.167006,3.072
-0.258061,-31.925463,-0.258061,3.074
-0.320192,-31.925463,-0.320192,3.076
-0.387776,-31.925463,-0.387776,3.078
-0.466502,-31.925463,-0.466502,3.08
-0.299359,-31.925463,-0.299359,3.082
-0.309919,-31.925463,-0.309919,3.084
-0.320435,-31.925463,-0.320435,3.086
-0.262382,-31.925463,-0.262382,3.088
-0.215986,-31.925463,-0.215986,3.09
-0.215462,-31.846555,-0.215462,3.092
-0.163546,-31.925463,-0.163546,3.094
-0.260311,-31.925463,-0.260311,3.096
-0.38523,-31.925463,-0.38523,3.098
-0.338326,-31.925463,-0.338326,3.1
-0.314453,-31.925463,-0.314453,3.102
-0.324938,-31.925463,-0.324938,3.104
-0.3468,-31.925463,-0.3468,3.106
-0.322887,-31.925463,-0.322887,3.108
-0.333332,-31.925463,-0.333332,3.11
-0.355154,-31.925463,-0.355154,3.112
-0.262678,-31.925463,-0.262678,3.114
-0.18771,-31.846555,-0.18771,3.116
-0.267228,-31.925463,-0.267228,3.118
-0.369259,-31.925463,-0.369259,3.12
-0.362375,-31.925463,-0.362375,3.122
-0.218469,-31.925463,-0.218469,3.124
-0.115124,-31.925463,-0.115124,3.126
-0.086437,-31.925463,-0.086437,3.128
-0.28628,-31.925463,-0.28628,3.13
-0.422489,-31.925463,-0.422489,3.132
-0.432511,-31.925463,-0.432511,3.134
-0.396807,-31.925463,-0.396807,3.136
-0.395509,-31.925463,-0.395509,3.138
-0.32569,-31.925463,-0.32569,3.14
-0.278996,-31.925463,-0.278996,3.142
-0.289595,-31.925463,-0.289595,3.144
-0.328701,-31.925463,-0.328701,3.146
-0.219177,-31.925463,-0.219177,3.148
-0.207176,-31.925463,-0.207176,3.15
-0.240906,-31.925463,-0.240906,3.152
-0.251655,-31.846555,-0.251655,3.154
-0.199546,-31.925463,-0.199546,3.156
-0.239014,-32.00437,-0.239014,3.158
-0.369685,-31.925463,-0.369685,3.16
-0.328508,-31.925463,-0.328508,3.162
-0.281789,-31.925463,-0.281789,3.164
-0.303783,-32.00437,-0.303783,3.166
-0.280003,-31.925463,-0.280003,3.168
-0.427628,-31.925463,-0.427628,3.17
-0.528963,-31.925463,-0.528963,3.172
-0.332944,-32.00437,-0.332944,3.174
-0.297614,-31.925463,-0.297614,3.176
-0.268138,-31.925463,-0.268138,3.178
-0.238781,-31.925463,-0.238781,3.18
-0.306618,-31.925463,-0.306618,3.182
-0.408438,-31.846555,-0.408438,3.184
-0.389922,-31.925463,-0.389922,3.186
-0.38861,-31.925463,-0.38861,3.188
-0.233123,-31.925463,-0.233123,3.19
-0.215319,-31.925463,-0.215319,3.192
-0.328924,-31.925463,-0.328924,3.194
-0.482034,-31.925463,-0.482034,3.196
-0.491756,-32.00437,-0.491756,3.198
-0.461463,-32.00437,-0.461463,3.2
-0.437001,-31.925463,-0.437001,3.202
-0.269878,-31.925463,-0.269878,3.204
-0.223356,-31.925463,-0.223356,3.206
-0.342622,-31.925463,-0.342622,3.208
-0.381453,-31.925463,-0.381453,3.21
-0.300206,-31.925463,-0.300206,3.212
-0.236421,-32.00437,-0.236421,3.214
-0.304234,-31.846555,-0.304234,3.216
-0.25185,-32.00437,-0.25185,3.218
-0.256783,-31.925463,-0.256783,3.22
-0.313087,-31.925463,-0.313087,3.222
-0.357738,-32.00437,-0.357738,3.224
-0.316549,-31.925463,-0.316549,3.226
-0.338341,-32.00437,-0.338341,3.228
-0.405724,-32.00437,-0.405724,3.23
-0.352912,-31.925463,-0.352912,3.232
-0.191817,-31.925463,-0.191817,3.234
-0.191271,-31.925463,-0.191271,3.236
-0.333484,-32.00437,-0.333484,3.238
-0.343775,-32.00437,-0.343775,3.24
-0.251237,-31.925463,-0.251237,3.242
-0.187627,-31.846555,-0.187627,3.244
-0.267036,-31.925463,-0.267036,3.246
-0.243332,-31.925463,-0.243332,3.248
-0.328219,-31.925463,-0.328219,3.25
-0.469861,-31.925463,-0.469861,3.252
-0.433899,-31.925463,-0.433899,3.254
-0.323847,-31.925463,-0.323847,3.256
-0.374133,-31.925463,-0.374133,3.258
-0.310004,-31.925463,-0.310004,3.26
-0.326081,-31.925463,-0.326081,3.262
-0.34209,-32.00437,-0.34209,3.264
-0.380872,-31.925463,-0.380872,3.266
-0.425204,-31.925463,-0.425204,3.268
-0.366565,-31.925463,-0.366565,3.27
-0.296744,-31.925463,-0.296744,3.272
-0.232917,-32.00437,-0.232917,3.274
-0.209322,-31.925463,-0.209322,3.276
-0.197244,-31.925463,-0.197244,3.278
-0.225187,-31.925463,-0.225187,3.28
-0.321537,-31.925463,-0.321537,3.282
-0.308996,-31.846555,-0.308996,3.284
-0.325055,-31.925463,-0.325055,3.286
-0.443832,-31.846555,-0.443832,3.288
-0.425072,-32.00437,-0.425072,3.29
-0.349283,-31.925463,-0.349283,3.292
-0.296643,-32.00437,-0.296643,3.294
-0.130011,-32.00437,-0.130011,3.296
-0.352362,-31.925463,-0.352362,3.298
-0.465304,-32.00437,-0.465304,3.3
-0.292265,-31.925463,-0.292265,3.302
-0.359766,-31.925463,-0.359766,3.304
-0.489802,-32.00437,-0.489802,3.306
-0.373758,-31.925463,-0.373758,3.308
-0.223925,-31.925463,-0.223925,3.31
-0.217462,-31.925463,-0.217462,3.312
-0.193894,-31.925463,-0.193894,3.314
-0.193263,-31.925463,-0.193263,3.316
-0.221184,-32.00437,-0.221184,3.318
-0.334645,-31.925463,-0.334645,3.32
-0.333433,-31.925463,-0.333433,3.322
-0.337934,-31.925463,-0.337934,3.324
-0.330994,-32.00437,-0.330994,3.326
-0.32408,-31.925463,-0.32408,3.328
-0.322902,-31.925463,-0.322902,3.33
-0.327438,-31.925463,-0.327438,3.332
-0.240588,-31.925463,-0.240588,3.334
-0.096989,-31.925463,-0.096989,3.336
-0.193811,-31.925463,-0.193811,3.338
-0.284526,-31.925463,-0.284526,3.34
-0.232109,-31.925463,-0.232109,3.342
-0.374056,-31.925463,-0.374056,3.344
-0.304138,-32.00437,-0.304138,3.346
-0.411524,-31.925463,-0.411524,3.348
-0.449943,-32.00437,-0.449943,3.35
-0.27121,-31.925463,-0.27121,3.352
-0.195993,-31.925463,-0.195993,3.354
-0.229579,-31.925463,-0.229579,3.356
-0.263026,-31.925463,-0.263026,3.358
-0.273494,-31.925463,-0.273494,3.36
-0.323889,-31.925463,-0.323889,3.362
-0.311261,-31.925463,-0.311261,3.364
-0.355787,-32.00437,-0.355787,3.366
-0.365866,-31.925463,-0.365866,3.368
-0.313088,-31.925463,-0.313088,3.37
-0.323338,-32.00437,-0.323338,3.372
-0.253598,-32.00437,-0.253598,3.374
-0.201274,-32.00437,-0.201274,3.376
-0.200556,-31.925463,-0.200556,3.378
-0.119896,-31.925463,-0.119896,3.38
-0.199454,-31.925463,-0.199454,3.382
-0.290106,-32.00437,-0.290106,3.384
-0.283309,-31.925463,-0.283309,3.386
-0.219435,-31.925463,-0.219435,3.388
-0.207214,-32.00437,-0.207214,3.39
-0.292118,-31.846555,-0.292118,3.392
-0.410934,-31.925463,-0.410934,3.394
-0.409343,-31.925463,-0.409343,3.396
-0.225026,-31.925463,-0.225026,3.398
-0.304137,-31.925463,-0.304137,3.4
-0.382923,-31.925463,-0.382923,3.402
-0.278652,-32.00437,-0.278652,3.404
-0.174807,-31.925463,-0.174807,3.406
-0.157041,-31.925463,-0.157041,3.408
-0.156478,-31.925463,-0.156478,3.41
-0.378619,-32.00437,-0.378619,3.412
-0.365724,-32.00437,-0.365724,3.414
-0.307197,-31.925463,-0.307197,3.416
-0.243198,-32.00437,-0.243198,3.418
-0.2023,-32.00437,-0.2023,3.42
-0.172989,-31.925463,-0.172989,3.422
-0.235162,-31.846555,-0.235162,3.424
-0.217135,-31.925463,-0.217135,3.426
-0.313387,-31.925463,-0.313387,3.428
-0.295035,-31.925463,-0.295035,3.43
-0.253916,-31.925463,-0.253916,3.432
-0.315749,-32.00437,-0.315749,3.434
-0.331645,-31.925463,-0.331645,3.436
-0.238977,-31.925463,-0.238977,3.438
-0.175238,-31.925463,-0.175238,3.44
-0.311621,-32.00437,-0.311621,3.442
-0.310395,-31.925463,-0.310395,3.444
-0.194966,-31.925463,-0.194966,3.446
-0.10856,-32.00437,-0.10856,3.448
-0.170976,-31.925463,-0.170976,3.45
-0.450127,-32.00437,-0.450127,3.452
-0.328409,-31.925463,-0.328409,3.454
-0.287132,-32.00437,-0.287132,3.456
-0.297415,-31.925463,-0.297415,3.458
-0.353336,-31.925463,-0.353336,3.46
-0.283398,-31.925463,-0.283398,3.462
-0.179484,-31.925463,-0.179484,3.464
-0.121676,-31.925463,-0.121676,3.466
-0.201152,-31.925463,-0.201152,3.468
-0.228909,-31.925463,-0.228909,3.47
-0.353625,-31.925463,-0.353625,3.472
-0.369333,-32.00437,-0.369333,3.474
-0.32787,-31.925463,-0.32787,3.476
-0.269443,-31.925463,-0.269443,3.478
-0.176993,-31.925463,-0.176993,3.48
-0.147733,-31.925463,-0.147733,3.482
-0.187116,-31.925463,-0.187116,3.484
-0.174944,-31.925463,-0.174944,3.486
-0.259896,-31.925463,-0.259896,3.488
-0.304526,-31.925463,-0.304526,3.49
-0.348971,-31.925463,-0.348971,3.492
-0.313287,-31.925463,-0.313287,3.494
-0.254906,-31.925463,-0.254906,3.496
-0.299547,-31.925463,-0.299547,3.498
-0.218377,-31.925463,-0.218377,3.5
-0.246034,-31.846555,-0.246034,3.502
-0.16508,-31.925463,-0.16508,3.504
-0.170111,-32.00437,-0.170111,3.506
-0.329299,-31.925463,-0.329299,3.508
-0.316523,-31.925463,-0.316523,3.51
-0.309508,-31.925463,-0.309508,3.512
-0.371042,-31.925463,-0.371042,3.514
-0.266723,-31.925463,-0.266723,3.516
-0.17996,-32.00437,-0.17996,3.518
-0.25344,-31.925463,-0.25344,3.52
-0.206701,-31.925463,-0.206701,3.522
-0.143021,-31.925463,-0.143021,3.524
-0.045339,-31.925463,-0.045339,3.526
-0.045133,-31.925463,-0.045133,3.528
-0.044927,-31.925463,-0.044927,3.53
0.023802,-31.925463,0.023802,3.532
0.109379,-31.925463,0.109379,3.534
0.074688,-31.925463,0.074688,3.536
-0.074068,-31.925463,-0.074068,3.538
-0.222214,-31.925463,-0.222214,3.54
-0.244125,-31.925463,-0.244125,3.542
-0.17458,-31.925463,-0.17458,3.544
-0.185263,-31.846555,-0.185263,3.546
-0.173059,-31.925463,-0.173059,3.548
-0.155194,-32.00437,-0.155194,3.55
-0.217346,-31.925463,-0.217346,3.552
-0.210718,-31.925463,-0.210718,3.554
-0.198405,-32.00437,-0.198405,3.556
-0.243244,-31.925463,-0.243244,3.558
-0.122299,-31.925463,-0.122299,3.56
-0.281654,-32.00437,-0.281654,3.562
-0.560271,-31.925463,-0.560271,3.564
-0.369496,-31.925463,-0.369496,3.566
-0.082425,-32.00437,-0.082425,3.568
-0.144858,-31.925463,-0.144858,3.57
-0.172773,-31.925463,-0.172773,3.572
-0.286227,-31.925463,-0.286227,3.574
-0.307849,-31.925463,-0.307849,3.576
-0.238015,-31.846555,-0.238015,3.578
-0.208438,-32.00437,-0.208438,3.58
-0.247504,-31.925463,-0.247504,3.582
-0.206464,-31.925463,-0.206464,3.584
-0.205563,-31.925463,-0.205563,3.586
-0.147561,-31.925463,-0.147561,3.588
-0.135478,-32.00437,-0.135478,3.59
-0.094892,-31.846555,-0.094892,3.592
-0.168679,-31.925463,-0.168679,3.594
-0.236451,-31.925463,-0.236451,3.596
-0.275393,-31.925463,-0.275393,3.598
-0.257069,-31.925463,-0.257069,3.6
-0.290212,-32.00437,-0.290212,3.602
-0.288955,-31.925463,-0.288955,3.604
-0.133523,-31.925463,-0.133523,3.606
-0.264242,-32.00437,-0.264242,3.608
-0.354451,-31.925463,-0.354451,3.61
-0.181614,-31.925463,-0.181614,3.612
-0.186503,-31.846555,-0.186503,3.614
-0.157109,-31.925463,-0.157109,3.616
-0.122123,-31.925463,-0.122123,3.618
-0.127253,-31.925463,-0.127253,3.62
-0.058127,-31.846555,-0.058127,3.622
-0.11491,-31.846555,-0.11491,3.624
-0.245694,-31.925463,-0.245694,3.626
-0.341679,-31.925463,-0.341679,3.628
-0.225986,-31.925463,-0.225986,3.63
-0.213551,-31.925463,-0.213551,3.632
-0.189745,-31.846555,-0.189745,3.634
-0.188877,-31.846555,-0.188877,3.636
-0.382161,-31.925463,-0.382161,3.638
-0.300555,-31.925463,-0.300555,3.64
-0.156468,-31.925463,-0.156468,3.642
-0.349878,-31.925463,-0.349878,3.644
-0.314081,-31.846555,-0.314081,3.646
-0.112829,-31.846555,-0.112829,3.648
-0.157944,-31.846555,-0.157944,3.65
-0.077247,-31.925463,-0.077247,3.652
-0.099665,-31.925463,-0.099665,3.654
-0.201934,-31.846555,-0.201934,3.656
-0.063951,-31.925463,-0.063951,3.658
0.033496,-31.846555,0.033496,3.66
-0.080739,-31.925463,-0.080739,3.662
-0.314421,-31.846555,-0.314421,3.664
-0.347283,-31.846555,-0.347283,3.666
-0.254381,-31.846555,-0.254381,3.668
-0.258933,-31.925463,-0.258933,3.67
-0.212071,-31.925463,-0.212071,3.672
-0.153979,-31.925463,-0.153979,3.674
-0.130386,-31.925463,-0.130386,3.676
-0.118309,-31.846555,-0.118309,3.678
-0.077729,-31.846555,-0.077729,3.68
-0.12868,-31.925463,-0.12868,3.682
-0.190842,-31.846555,-0.190842,3.684
-0.178513,-31.846555,-0.178513,3.686
-0.137683,-31.846555,-0.137683,3.688
-0.097018,-32.00437,-0.097018,3.69
-0.153595,-31.925463,-0.153595,3.692
-0.175677,-31.925463,-0.175677,3.694
-0.191956,-31.846555,-0.191956,3.696
-0.282402,-31.846555,-0.282402,3.698
-0.201166,-31.925463,-0.201166,3.7
-0.051737,-31.925463,-0.051737,3.702
-0.171304,-31.846555,-0.171304,3.704
-0.141913,-31.846555,-0.141913,3.706
-0.078379,-31.846555,-0.078379,3.708
-0.083628,-31.925463,-0.083628,3.71
-0.145958,-31.846555,-0.145958,3.712
-0.293687,-31.925463,-0.293687,3.714
-0.29234,-31.925463,-0.29234,3.716
-0.17679,-31.846555,-0.17679,3.718
-0.227311,-31.846555,-0.227311,3.72
-0.294754,-31.846555,-0.294754,3.722
-0.184899,-31.925463,-0.184899,3.724
-0.086913,-31.846555,-0.086913,3.726
-0.074982,-31.846555,-0.074982,3.728
0.005424,-31.925463,0.005424,3.73
0.07979,-31.846555,0.07979,3.732
-0.103113,-31.846555,-0.103113,3.734
-0.17677,-31.925463,-0.17677,3.736
-0.175891,-31.925463,-0.175891,3.738
-0.12933,-31.846555,-0.12933,3.74
-0.237139,-31.925463,-0.237139,3.742
-0.11038,-31.925463,-0.11038,3.744
-0.069795,-31.925463,-0.069795,3.746
-0.086479,-31.925463,-0.086479,3.748
-0.091673,-31.925463,-0.091673,3.75
-0.039742,-31.925463,-0.039742,3.752
0.000556,-31.846555,0.000556,3.754
-0.033545,-31.925463,-0.033545,3.756
-0.181713,-31.846555,-0.181713,3.758
-0.243618,-31.846555,-0.243618,3.76
-0.276715,-31.846555,-0.276715,3.762
-0.269703,-31.846555,-0.269703,3.764
-0.068566,-31.925463,-0.068566,3.766
-0.102376,-31.846555,-0.102376,3.768
-0.067522,-31.925463,-0.067522,3.77
-0.152728,-31.846555,-0.152728,3.772
-0.220452,-31.846555,-0.220452,3.774
-0.128008,-31.846555,-0.128008,3.776
-0.053073,-31.846555,-0.053073,3.778
-0.029837,-31.846555,-0.029837,3.78
-0.018117,-31.846555,-0.018117,3.782
-0.194885,-31.925463,-0.194885,3.784
-0.256721,-31.846555,-0.256721,3.786
-0.175544,-31.846555,-0.175544,3.788
-0.186063,-31.925463,-0.186063,3.79
-0.185117,-31.846555,-0.185117,3.792
-0.092808,-31.925463,-0.092808,3.794
-0.092242,-31.846555,-0.092242,3.796
-0.211593,-31.925463,-0.211593,3.798
-0.193407,-31.925463,-0.193407,3.8
-0.078218,-31.925463,-0.078218,3.802
-0.117679,-31.925463,-0.117679,3.804
-0.088453,-31.925463,-0.088453,3.806
-0.173553,-31.925463,-0.173553,3.808
-0.189779,-32.00437,-0.189779,3.81
-0.194516,-31.925463,-0.194516,3.812
-0.210653,-31.925463,-0.210653,3.814
-0.152488,-31.846555,-0.152488,3.816
-0.151663,-31.925463,-0.151663,3.818
-0.225074,-32.00437,-0.225074,3.82
-0.218238,-31.925463,-0.218238,3.822
-0.23998,-31.925463,-0.23998,3.824
-0.210239,-31.925463,-0.210239,3.826
-0.112093,-32.00437,-0.112093,3.828
-0.179948,-31.925463,-0.179948,3.83
-0.064793,-31.925463,-0.064793,3.832
-0.092867,-31.925463,-0.092867,3.834
-0.326397,-31.925463,-0.326397,3.836
-0.159245,-31.925463,-0.159245,3.838
-0.106983,-32.00437,-0.106983,3.84
-0.180561,-31.925463,-0.180561,3.842
-0.230995,-31.846555,-0.230995,3.844
-0.292641,-31.925463,-0.292641,3.846
-0.188432,-31.925463,-0.188432,3.848
-0.267379,-32.00437,-0.267379,3.85
-0.288898,-31.925463,-0.288898,3.852
-0.281774,-31.925463,-0.281774,3.854
-0.234705,-31.925463,-0.234705,3.856
-0.193536,-31.925463,-0.193536,3.858
-0.181087,-32.00437,-0.181087,3.86
-0.128714,-32.00437,-0.128714,3.862
-0.065135,-32.00437,-0.065135,3.864
-0.081759,-31.925463,-0.081759,3.866
-0.132577,-31.925463,-0.132577,3.868
-0.177475,-31.925463,-0.177475,3.87
-0.130823,-31.925463,-0.130823,3.872
-0.170015,-31.925463,-0.170015,3.874
-0.237597,-32.00437,-0.237597,3.876
-0.236376,-31.925463,-0.236376,3.878
-0.26942,-32.00437,-0.26942,3.88
-0.159568,-31.925463,-0.159568,3.882
-0.192923,-32.00437,-0.192923,3.884
-0.23185,-31.925463,-0.23185,3.886
-0.207802,-32.00437,-0.207802,3.888
-0.18385,-31.925463,-0.18385,3.89
-0.142864,-31.925463,-0.142864,3.892
-0.164859,-32.00437,-0.164859,3.894
-0.135368,-32.00437,-0.135368,3.896
-0.123129,-32.00437,-0.123129,3.898
-0.190883,-31.925463,-0.190883,3.9
-0.13844,-31.925463,-0.13844,3.902
-0.109053,-32.00437,-0.109053,3.904
-0.091206,-32.00437,-0.091206,3.906
-0.05059,-32.00437,-0.05059,3.908
-0.232841,-31.925463,-0.232841,3.91
-0.283007,-32.00437,-0.283007,3.912
-0.298703,-31.925463,-0.298703,3.914
-0.177285,-32.00437,-0.177285,3.916
-0.090624,-31.925463,-0.090624,3.918
-0.101393,-32.00437,-0.101393,3.92
-0.180641,-32.00437,-0.180641,3.922
-0.202459,-31.925463,-0.202459,3.924
-0.247027,-32.00437,-0.247027,3.926
-0.080129,-31.925463,-0.080129,3.928
-0.03954,-32.00437,-0.03954,3.93
0.035144,-32.00437,0.035144,3.932
-0.027525,-32.00437,-0.027525,3.934
-0.249826,-31.925463,-0.249826,3.936
-0.174277,-32.00437,-0.174277,3.938
-0.047644,-32.00437,-0.047644,3.94
-0.264148,-32.00437,-0.264148,3.942
-0.308453,-31.925463,-0.308453,3.944
-0.221237,-31.925463,-0.221237,3.946
-0.21432,-31.925463,-0.21432,3.948
-0.178878,-31.925463,-0.178878,3.95
-0.075056,-32.00437,-0.075056,3.952
-0.125837,-32.00437,-0.125837,3.954
-0.273484,-32.00437,-0.273484,3.956
-0.112167,-31.846555,-0.112167,3.958
-0.128529,-32.00437,-0.128529,3.96
-0.121982,-31.925463,-0.121982,3.962
-0.12117,-31.925463,-0.12117,3.964
-0.234567,-31.925463,-0.234567,3.966
-0.124795,-31.925463,-0.124795,3.968
-0.055444,-31.925463,-0.055444,3.97
-0.094873,-31.925463,-0.094873,3.972
-0.128428,-31.925463,-0.128428,3.974
-0.116162,-31.925463,-0.116162,3.976
-0.058263,-32.00437,-0.058263,3.978
-0.057704,-31.925463,-0.057704,3.98
-0.119959,-32.00437,-0.119959,3.982
-0.170538,-32.00437,-0.170538,3.984
-0.215198,-31.925463,-0.215198,3.986
-0.122625,-31.925463,-0.122625,3.988
-0.081823,-31.925463,-0.081823,3.99
-0.143973,-31.925463,-0.143973,3.992
-0.177315,-31.925463,-0.177315,3.994
-0.113444,-31.925463,-0.113444,3.996
-0.141198,-31.925463,-0.141198,3.998
-0.134575,-31.925463,-0.134575,4
-0.082296,-31.925463,-0.082296,4.002
-0.058781,-31.925463,-0.058781,4.004
-0.143858,-31.925463,-0.143858,4.006
-0.165772,-31.925463,-0.165772,4.008
-0.273249,-31.925463,-0.273249,4.01
-0.066216,-31.846555,-0.066216,4.012
-0.088443,-32.00437,-0.088443,4.014
-0.139129,-31.925463,-0.139129,4.016
-0.132503,-31.925463,-0.132503,4.018
-0.074511,-31.925463,-0.074511,4.02
-0.130961,-31.925463,-0.130961,4.022
-0.187178,-31.925463,-0.187178,4.024
-0.237454,-31.925463,-0.237454,4.026
-0.150473,-31.925463,-0.150473,4.028
-0.052427,-31.925463,-0.052427,4.03
-0.017595,-31.925463,-0.017595,4.032
-0.102822,-31.925463,-0.102822,4.034
-0.113465,-31.925463,-0.113465,4.036
-0.135484,-31.925463,-0.135484,4.038
-0.071756,-31.925463,-0.071756,4.04
-0.03684,-31.925463,-0.03684,4.042
-0.082011,-31.925463,-0.082011,4.044
-0.161258,-31.925463,-0.161258,4.046
-0.165945,-31.846555,-0.165945,4.048
-0.136349,-31.925463,-0.136349,4.05
-0.07261,-31.925463,-0.07261,4.052
-0.169021,-31.846555,-0.169021,4.054
-0.207932,-31.925463,-0.207932,4.056
-0.223841,-31.925463,-0.223841,4.058
-0.239682,-31.925463,-0.239682,4.06
-0.072726,-31.846555,-0.072726,4.062
-0.094893,-31.925463,-0.094893,4.064
-0.059866,-31.846555,-0.059866,4.066
0.066384,-32.00437,0.066384,4.068
0.123593,-31.925463,0.123593,4.07
-0.013584,-31.925463,-0.013584,4.072
-0.127358,-31.925463,-0.127358,4.074
-0.206402,-31.846555,-0.206402,4.076
-0.205176,-31.925463,-0.205176,4.078
-0.198243,-31.846555,-0.198243,4.08
-0.065709,-31.925463,-0.065709,4.082
-0.036503,-31.925463,-0.036503,4.084
-0.155885,-31.846555,-0.155885,4.086
-0.17199,-31.846555,-0.17199,4.088
-0.130924,-31.925463,-0.130924,4.09
-0.078604,-31.846555,-0.078604,4.092
-0.043629,-31.925463,-0.043629,4.094
-0.100161,-31.846555,-0.100161,4.096
-0.116489,-31.925463,-0.116489,4.098
-0.109907,-31.925463,-0.109907,4.1
-0.09764,-31.925463,-0.09764,4.102
-0.062582,-31.925463,-0.062582,4.104
-0.124741,-31.925463,-0.124741,4.106
-0.186645,-31.925463,-0.186645,4.108
-0.214031,-31.925463,-0.214031,4.11
-0.087124,-32.00437,-0.087124,4.112
-0.02355,-31.925463,-0.02355,4.114
-0.011628,-31.925463,-0.011628,4.116
-0.125382,-31.925463,-0.125382,4.118
-0.232958,-31.925463,-0.232958,4.12
-0.117389,-31.925463,-0.117389,4.122
-0.087947,-31.925463,-0.087947,4.124
-0.092886,-31.925463,-0.092886,4.126
-0.012149,-31.925463,-0.012149,4.128
0.051127,-31.925463,0.051127,4.13
-0.068587,-31.925463,-0.068587,4.132
-0.19352,-31.925463,-0.19352,4.134
-0.135209,-31.925463,-0.135209,4.136
-0.054294,-32.00437,-0.054294,4.138
-0.076496,-32.00437,-0.076496,4.14
-0.121447,-31.925463,-0.121447,4.142
-0.251867,-31.925463,-0.251867,4.144
-0.210441,-31.925463,-0.210441,4.146
-0.100658,-31.925463,-0.100658,4.148
-0.156924,-32.00437,-0.156924,4.15
-0.190116,-31.925463,-0.190116,4.152
-0.160356,-31.925463,-0.160356,4.154
-0.045063,-32.00437,-0.045063,4.156
-0.004474,-32.00437,-0.004474,4.158
0.030238,-31.925463,0.030238,4.16
-0.020847,-31.925463,-0.020847,4.162
0.008222,-31.925463,0.008222,4.164
0.037173,-31.925463,0.037173,4.166
0.077426,-32.00437,0.077426,4.168
0.083251,-32.00437,0.083251,4.17
0.100473,-31.846555,0.100473,4.172
0.123334,-32.00437,0.123334,4.174
0.094709,-31.846555,0.094709,4.176
0.043358,-31.925463,0.043358,4.178
0.02077,-32.00437,0.02077,4.18
-0.007436,-31.846555,-0.007436,4.182
-0.064078,-31.925463,-0.064078,4.184
-0.120487,-32.00437,-0.120487,4.186
-0.113849,-31.925463,-0.113849,4.188
-0.095818,-31.925463,-0.095818,4.19
-0.140672,-32.00437,-0.140672,4.192
-0.128238,-31.846555,-0.128238,4.194
-0.155825,-31.925463,-0.155825,4.196
-0.143326,-31.925463,-0.143326,4.198
-0.073773,-31.925463,-0.073773,4.2
-0.050187,-31.846555,-0.050187,4.202
-0.112351,-31.925463,-0.112351,4.204
-0.139997,-31.925463,-0.139997,4.206
-0.030481,-31.925463,-0.030481,4.208
-0.001357,-31.925463,-0.001357,4.21
-0.09798,-31.925463,-0.09798,4.212
-0.10284,-32.00437,-0.10284,4.214
-0.079127,-31.925463,-0.079127,4.216
-0.021249,-31.925463,-0.021249,4.218
0.059234,-31.925463,0.059234,4.22
-0.020501,-31.925463,-0.020501,4.222
-0.094199,-32.00437,-0.094199,4.224
-0.08765,-31.925463,-0.08765,4.226
-0.143939,-31.925463,-0.143939,4.228
-0.234259,-31.925463,-0.234259,4.23
-0.181448,-31.925463,-0.181448,4.232
-0.037487,-31.925463,-0.037487,4.234
-0.00261,-31.925463,-0.00261,4.236
-0.082082,-31.925463,-0.082082,4.238
-0.075573,-32.00437,-0.075573,4.24
-0.103352,-32.00437,-0.103352,4.242
-0.056781,-31.925463,-0.056781,4.244
-0.118896,-31.925463,-0.118896,4.246
-0.089391,-32.00437,-0.089391,4.248
-0.077136,-31.925463,-0.077136,4.25
-0.116323,-32.00437,-0.116323,4.252
-0.046852,-31.925463,-0.046852,4.254
-0.017637,-32.00437,-0.017637,4.256
-0.097037,-31.925463,-0.097037,4.258
-0.113297,-32.00437,-0.113297,4.26
-0.032414,-31.925463,-0.032414,4.262
-0.008965,-31.925463,-0.008965,4.264
0.03723,-31.925463,0.03723,4.266
-0.053811,-31.925463,-0.053811,4.268
-0.110217,-31.925463,-0.110217,4.27
-0.092157,-31.925463,-0.092157,4.272
-0.08559,-31.925463,-0.08559,4.274
-0.061917,-31.925463,-0.061917,4.276
0.041603,-31.925463,0.041603,4.278
0.121859,-31.846555,0.121859,4.28
0.098999,-31.925463,0.098999,4.282
-0.009422,-32.00437,-0.009422,4.284
-0.071716,-31.925463,-0.071716,4.286
-0.213698,-31.925463,-0.213698,4.288
-0.229469,-31.925463,-0.229469,4.29
-0.090995,-31.925463,-0.090995,4.292
-0.033031,-32.00437,-0.033031,4.294
0.041827,-32.00437,0.041827,4.296
0.093537,-32.00437,0.093537,4.298
0.019408,-31.925463,0.019408,4.3
-0.003025,-32.00437,-0.003025,4.302
-0.025364,-31.925463,-0.025364,4.304
-0.104715,-31.925463,-0.104715,4.306
-0.080954,-32.00437,-0.080954,4.308
-0.023027,-32.00437,-0.023027,4.31
0.046083,-31.925463,0.046083,4.312
-0.022136,-31.925463,-0.022136,4.314
-0.084366,-31.925463,-0.084366,4.316
-0.134918,-32.00437,-0.134918,4.318
-0.128159,-31.925463,-0.128159,4.32
-0.024351,-31.925463,-0.024351,4.322
-0.046594,-31.925463,-0.046594,4.324
-0.051615,-31.925463,-0.051615,4.326
-0.033772,-32.00437,-0.033772,4.328
-0.067395,-32.00437,-0.067395,4.33
-0.043776,-31.925463,-0.043776,4.332
0.111085,-32.00437,0.111085,4.334
0.179656,-32.00437,0.179656,4.336
0.133738,-31.925463,0.133738,4.338
-0.014777,-32.00437,-0.014777,4.34
-0.008506,-31.925463,-0.008506,4.342
-0.110755,-31.925463,-0.110755,4.344
-0.104088,-32.00437,-0.104088,4.346
0.068152,-31.925463,0.068152,4.348
0.045536,-32.00437,0.045536,4.35
0.023012,-31.925463,0.023012,4.352
0.057684,-31.925463,0.057684,4.354
-0.050543,-31.925463,-0.050543,4.356
-0.112644,-31.925463,-0.112644,4.358
-0.054573,-31.925463,-0.054573,4.36
-0.059552,-32.00437,-0.059552,4.362
0.009724,-32.00437,0.009724,4.364
0.021614,-31.925463,0.021614,4.366
-0.080751,-31.846555,-0.080751,4.368
-0.176985,-32.00437,-0.176985,4.37
-0.010148,-31.925463,-0.010148,4.372
-0.180903,-31.925463,-0.180903,4.374
-0.065441,-31.925463,-0.065441,4.376
0.06097,-31.925463,0.06097,4.378
0.11834,-31.925463,0.11834,4.38
0.135501,-31.925463,0.135501,4.382
0.095489,-32.00437,0.095489,4.384
0.084192,-31.925463,0.084192,4.386
0.084361,-31.925463,0.084361,4.388
-0.012546,-31.925463,-0.012546,4.39
-0.109055,-32.00437,-0.109055,4.392
-0.045279,-31.925463,-0.045279,4.394
-0.038866,-31.925463,-0.038866,4.396
0.013204,-31.846555,0.013204,4.398
0.030798,-31.925463,0.030798,4.4
0.054032,-31.925463,0.054032,4.402
0.117142,-31.925463,0.117142,4.404
0.128601,-32.00437,0.128601,4.406
0.128591,-31.925463,0.128591,4.408
0.168553,-31.925463,0.168553,4.41
0.151248,-31.925463,0.151248,4.412
-0.020166,-31.925463,-0.020166,4.414
-0.05954,-31.925463,-0.05954,4.416
0.049716,-32.00437,0.049716,4.418
0.147104,-31.925463,0.147104,4.42
0.01568,-31.925463,0.01568,4.422
-0.132336,-32.00437,-0.132336,4.424
-0.165538,-31.925463,-0.165538,4.426
0.052652,-31.925463,0.052652,4.428
0.098639,-32.00437,0.098639,4.43
0.001679,-31.925463,0.001679,4.432
-0.014939,-31.925463,-0.014939,4.434
0.11698,-31.925463,0.11698,4.436
0.054207,-31.925463,0.054207,4.438
0.008822,-31.925463,0.008822,4.44
0.037858,-31.925463,0.037858,4.442
-0.001748,-32.00437,-0.001748,4.444
-0.143978,-32.00437,-0.143978,4.446
-0.159996,-32.00437,-0.159996,4.448
-0.118844,-31.925463,-0.118844,4.45
-0.089279,-31.925463,-0.089279,4.452
-0.059835,-31.925463,-0.059835,4.454
-0.03051,-32.00437,-0.03051,4.456
-0.029855,-31.925463,-0.029855,4.458
-0.109148,-31.925463,-0.109148,4.46
-0.11959,-31.925463,-0.11959,4.462
-0.032912,-32.00437,-0.032912,4.464
0.076252,-32.00437,0.076252,4.466
0.053632,-32.00437,0.053632,4.468
0.13389,-32.00437,0.13389,4.47
0.122454,-31.925463,0.122454,4.472
-0.140189,-31.925463,-0.140189,4.474
-0.12195,-32.00437,-0.12195,4.476
0.073236,-32.00437,0.073236,4.478
-0.092128,-32.00437,-0.092128,4.48
-0.159737,-31.925463,-0.159737,4.482
-0.044338,-32.00437,-0.044338,4.484
-0.066458,-31.925463,-0.066458,4.486
-0.111327,-31.925463,-0.111327,4.488
0.003877,-31.925463,0.003877,4.49
-0.018437,-32.00437,-0.018437,4.492
-0.05208,-32.00437,-0.05208,4.494
-0.022771,-31.925463,-0.022771,4.496
0.02355,-32.00437,0.02355,4.498
-0.050236,-31.925463,-0.050236,4.5
-0.003801,-32.00437,-0.003801,4.502
-0.060342,-32.00437,-0.060342,4.504
-0.133781,-32.00437,-0.133781,4.506
-0.132683,-32.00437,-0.132683,4.508
-0.103037,-31.925463,-0.103037,4.51
-0.096352,-31.925463,-0.096352,4.512
0.047354,-31.925463,0.047354,4.514
0.133369,-31.925463,0.133369,4.516
0.01346,-32.00437,0.01346,4.518
-0.060276,-32.00437,-0.060276,4.52
-0.116577,-32.00437,-0.116577,4.522
0.027215,-31.925463,0.027215,4.524
0.01624,-32.00437,0.01624,4.526
0.045282,-31.925463,0.045282,4.528
0.022813,-32.00437,0.022813,4.53
0.07467,-31.925463,0.07467,4.532
0.000687,-32.00437,0.000687,4.534
-0.05015,-31.925463,-0.05015,4.536
-0.066517,-31.925463,-0.066517,4.538
-0.059974,-31.925463,-0.059974,4.54
0.026488,-32.00437,0.026488,4.542
-0.035872,-31.925463,-0.035872,4.544
-0.058004,-31.925463,-0.058004,4.546
-0.068624,-31.925463,-0.068624,4.548
-0.022095,-31.925463,-0.022095,4.55
-0.084253,-31.925463,-0.084253,4.552
-0.106182,-31.925463,-0.106182,4.554
-0.008104,-31.925463,-0.008104,4.556
0.03247,-32.00437,0.03247,4.558
-0.007066,-31.925463,-0.007066,4.56
0.016374,-32.00437,0.016374,4.562
0.045428,-31.925463,0.045428,4.564
0.062943,-31.925463,0.062943,4.566
0.017573,-32.00437,0.017573,4.568
-0.044741,-32.00437,-0.044741,4.57
-0.083959,-31.925463,-0.083959,4.572
-0.083042,-32.00437,-0.083042,4.574
-0.099259,-31.925463,-0.099259,4.576
-0.064015,-31.925463,-0.064015,4.578
0.056741,-31.925463,0.056741,4.58
0.022823,-32.00437,0.022823,4.582
-0.068058,-31.925463,-0.068058,4.584
-0.072911,-32.00437,-0.072911,4.586
-0.01493,-32.00437,-0.01493,4.588
-0.059971,-31.925463,-0.059971,4.59
-0.002041,-32.00437,-0.002041,4.592
0.004259,-32.00437,0.004259,4.594
0.021955,-31.925463,0.021955,4.596
0.113813,-31.925463,0.113813,4.598
0.12535,-31.925463,0.12535,4.6
0.051184,-31.925463,0.051184,4.602
-0.039808,-31.925463,-0.039808,4.604
-0.033352,-31.925463,-0.033352,4.606
-0.026921,-31.925463,-0.026921,4.608
0.059428,-31.925463,0.059428,4.61
0.07119,-32.00437,0.07119,4.612
-0.019882,-32.00437,-0.019882,4.614
-0.099159,-31.925463,-0.099159,4.616
0.061723,-31.925463,0.061723,4.618
0.022085,-31.925463,0.022085,4.62
-0.063073,-31.925463,-0.063073,4.622
-0.079357,-32.00437,-0.079357,4.624
-0.135546,-32.00437,-0.135546,4.626
-0.14582,-31.925463,-0.14582,4.628
-0.235994,-31.925463,-0.235994,4.63
-0.188749,-32.00437,-0.188749,4.632
-0.010358,-31.925463,-0.010358,4.634
0.053096,-31.925463,0.053096,4.636
-0.037887,-31.846555,-0.037887,4.638
0.077074,-31.925463,0.077074,4.64
0.248667,-31.925463,0.248667,4.642
0.168303,-31.925463,0.168303,4.644
0.059715,-31.925463,0.059715,4.646
0.060068,-32.00437,0.060068,4.648
0.043288,-31.925463,0.043288,4.65
0.089391,-31.925463,0.089391,4.652
-0.013163,-31.925463,-0.013163,4.654
-0.046773,-31.846555,-0.046773,4.656
-0.051692,-32.00437,-0.051692,4.658
0.006223,-31.925463,0.006223,4.66
-0.004622,-31.925463,-0.004622,4.662
-0.004001,-32.00437,-0.004001,4.664
-0.043355,-31.925463,-0.043355,4.666
-0.173911,-31.846555,-0.173911,4.668
-0.172593,-32.00437,-0.172593,4.67
-0.142727,-31.925463,-0.142727,4.672
-0.0673,-31.925463,-0.0673,4.674
0.019241,-31.846555,0.019241,4.676
0.019773,-32.00437,0.019773,4.678
-0.031089,-32.00437,-0.031089,4.68
-0.02464,-31.925463,-0.02464,4.682
-0.018215,-31.925463,-0.018215,4.684
-0.148864,-31.925463,-0.148864,4.686
-0.073405,-31.925463,-0.073405,4.688
0.115953,-31.925463,0.115953,4.69
0.150357,-31.925463,0.150357,4.692
0.053281,-31.925463,0.053281,4.694
-0.014845,-31.925463,-0.014845,4.696
0.071488,-31.925463,0.071488,4.698
0.003288,-31.925463,0.003288,4.7
-0.03037,-31.925463,-0.03037,4.702
-0.052469,-31.925463,-0.052469,4.704
-0.063055,-31.925463,-0.063055,4.706
0.05774,-31.925463,0.05774,4.708
0.1552,-32.00437,0.1552,4.71
0.149474,-32.00437,0.149474,4.712
0.13235,-31.925463,0.13235,4.714
0.092454,-31.925463,0.092454,4.716
0.041301,-32.00437,0.041301,4.718
0.001779,-32.00437,0.001779,4.72
0.025233,-31.925463,0.025233,4.722
-0.031354,-31.925463,-0.031354,4.724
-0.167652,-31.925463,-0.167652,4.726
-0.086398,-32.00437,-0.086398,4.728
0.040207,-31.925463,0.040207,4.73
-0.050698,-31.925463,-0.050698,4.732
0.03579,-31.925463,0.03579,4.734
-0.037965,-31.925463,-0.037965,4.736
-0.151389,-32.00437,-0.151389,4.738
-0.064485,-32.00437,-0.064485,4.74
0.056326,-32.00437,0.056326,4.742
0.056725,-31.925463,0.056725,4.744
0.068544,-32.00437,0.068544,4.746
0.165969,-32.00437,0.165969,4.748
0.103105,-32.00437,0.103105,4.75
-0.005183,-32.00437,-0.005183,4.752
-0.124449,-31.925463,-0.124449,4.754
-0.100466,-32.00437,-0.100466,4.756
-0.053738,-32.00437,-0.053738,4.758
-0.052884,-31.925463,-0.052884,4.76
0.045044,-31.925463,0.045044,4.762
0.051205,-32.00437,0.051205,4.764
0.011659,-32.00437,0.011659,4.766
0.023669,-31.925463,0.023669,4.768
-0.021474,-32.00437,-0.021474,4.77
-0.05501,-32.00437,-0.05501,4.772
0.04293,-31.925463,0.04293,4.774
0.16902,-31.925463,0.16902,4.776
0.23178,-31.925463,0.23178,4.778
-0.128283,-32.00437,-0.128283,4.78
-0.212773,-31.925463,-0.212773,4.782
-0.097054,-31.925463,-0.097054,4.784
-0.101724,-31.925463,-0.101724,4.786
-0.089242,-31.925463,-0.089242,4.788
-0.013997,-31.925463,-0.013997,4.79
0.055231,-32.00437,0.055231,4.792
0.02139,-31.925463,0.02139,4.794
0.016239,-31.925463,0.016239,4.796
0.113895,-31.925463,0.113895,4.798
0.308227,-31.925463,0.308227,4.8
0.438947,-32.00437,0.438947,4.802
0.369268,-31.925463,0.369268,4.804
0.202796,-31.925463,0.202796,4.806
0.191184,-31.925463,0.191184,4.808
0.202459,-32.00437,0.202459,4.81
0.156584,-32.00437,0.156584,4.812
0.242234,-32.00437,0.242234,4.814
-0.009378,-31.925463,-0.009378,4.816
-0.162882,-31.925463,-0.162882,4.818
-0.041661,-32.00437,-0.041661,4.82
-0.02372,-32.00437,-0.02372,4.822
-0.102928,-31.925463,-0.102928,4.824
-0.073314,-32.00437,-0.073314,4.826
-0.072371,-32.00437,-0.072371,4.828
-0.134245,-31.925463,-0.134245,4.83
-0.155891,-31.925463,-0.155891,4.832
-0.143184,-32.00437,-0.143184,4.834
-0.073425,-31.925463,-0.073425,4.836
0.075995,-31.925463,0.075995,4.838
0.110596,-32.00437,0.110596,4.84
0.105083,-32.00437,0.105083,4.842
0.139564,-32.00437,0.139564,4.844
0.133931,-32.00437,0.133931,4.846
0.111191,-31.925463,0.111191,4.848
-0.059926,-32.00437,-0.059926,4.85
-0.207498,-32.00437,-0.207498,4.852
-0.126052,-32.00437,-0.126052,4.854
-0.084909,-31.925463,-0.084909,4.856
-0.015382,-32.00437,-0.015382,4.858
0.133805,-32.00437,0.133805,4.86
0.116782,-32.00437,0.116782,4.862
0.094118,-32.00437,0.094118,4.864
0.077257,-32.00437,0.077257,4.866
0.168961,-31.925463,0.168961,4.868
0.214606,-31.925463,0.214606,4.87
0.100174,-32.00437,0.100174,4.872
0.014762,-31.925463,0.014762,4.874
-0.127402,-32.00437,-0.127402,4.876
-0.029149,-32.00437,-0.029149,4.878
0.02873,-32.00437,0.02873,4.88
-0.050675,-32.00437,-0.050675,4.882
0.092948,-32.00437,0.092948,4.884
0.156039,-32.00437,0.156039,4.886
0.20174,-32.00437,0.20174,4.888
0.167308,-31.925463,0.167308,4.89
-0.129658,-31.925463,-0.129658,4.892
-0.145601,-32.00437,-0.145601,4.894
0.026964,-31.925463,0.026964,4.896
-0.058141,-31.925463,-0.058141,4.898
-0.131476,-31.925463,-0.131476,4.9
-0.073172,-31.925463,-0.073172,4.902
0.064839,-32.00437,0.064839,4.904
0.10521,-32.00437,0.10521,4.906
0.088312,-32.00437,0.088312,4.908
0.117166,-31.925463,0.117166,4.91
0.020274,-32.00437,0.020274,4.912
0.043696,-32.00437,0.043696,4.914
0.072733,-31.925463,0.072733,4.916
0.055968,-31.925463,0.055968,4.918
0.062114,-32.00437,0.062114,4.92
0.091076,-31.925463,0.091076,4.922
0.119919,-31.925463,0.119919,4.924
0.08012,-31.925463,0.08012,4.926
0.034774,-31.925463,0.034774,4.928
-0.004676,-31.925463,-0.004676,4.93
0.035981,-32.00437,0.035981,4.932
0.139285,-32.00437,0.139285,4.934
0.167931,-31.925463,0.167931,4.936
0.190749,-31.925463,0.190749,4.938
0.042164,-31.925463,0.042164,4.94
-0.100103,-32.00437,-0.100103,4.942
0.0266,-32.00437,0.0266,4.944
0.158494,-31.925463,0.158494,4.946
0.061435,-32.00437,0.061435,4.948
-0.029516,-31.925463,-0.029516,4.95
-0.000177,-32.00437,-0.000177,4.952
0.217482,-31.925463,0.217482,4.954
0.188706,-31.925463,0.188706,4.956
-0.108338,-31.925463,-0.108338,4.958
-0.044414,-31.925463,-0.044414,4.96
-0.015013,-31.925463,-0.015013,4.962
-0.042834,-32.00437,-0.042834,4.964
-0.0477,-31.925463,-0.0477,4.966
0.02169,-31.925463,0.02169,4.968
0.027983,-31.846555,0.027983,4.97
0.03425,-32.00437,0.03425,4.972
0.00052,-31.925463,0.00052,4.974
0.086846,-31.925463,0.086846,4.976
0.167107,-31.925463,0.167107,4.978
0.121412,-31.925463,0.121412,4.98
0.081614,-31.925463,0.081614,4.982
0.093372,-31.925463,0.093372,4.984
0.053689,-31.925463,0.053689,4.986
-0.060065,-31.925463,-0.060065,4.988
0.003667,-31.925463,0.003667,4.99
0.209897,-31.925463,0.209897,4.992
0.278234,-32.00437,0.278234,4.994
0.106456,-32.00437,0.106456,4.996
0.083849,-31.925463,0.083849,4.998
0.215514,-31.925463,0.215514,5
0.20388,-31.925463,0.20388,5.002
0.14661,-31.925463,0.14661,5.004
0.123836,-31.925463,0.123836,5.006
0.084025,-31.925463,0.084025,5.008
0.141451,-31.925463,0.141451,5.01
0.135829,-31.925463,0.135829,5.012
0.010312,-31.925463,0.010312,5.014
-0.074718,-31.846555,-0.074718,5.016
0.051884,-31.925463,0.051884,5.018
0.120864,-31.925463,0.120864,5.02
0.018252,-31.925463,0.018252,5.022
0.018846,-31.925463,0.018846,5.024
0.093673,-31.925463,0.093673,5.026
0.12822,-31.925463,0.12822,5.028
0.134075,-31.925463,0.134075,5.03
0.157035,-31.846555,0.157035,5.032
0.168481,-31.925463,0.168481,5.034
0.157037,-31.925463,0.157037,5.036
0.174192,-31.846555,0.174192,5.038
0.014255,-31.846555,0.014255,5.04
-0.03653,-31.846555,-0.03653,5.042
0.038522,-31.846555,0.038522,5.044
0.096135,-31.925463,0.096135,5.046
0.073567,-31.925463,0.073567,5.048
0.073934,-31.925463,0.073934,5.05
0.108561,-31.925463,0.108561,5.052
0.103073,-31.925463,0.103073,5.054
0.206104,-31.925463,0.206104,5.056
0.188795,-31.925463,0.188795,5.058
0.120163,-31.846555,0.120163,5.06
0.137467,-31.846555,0.137467,5.062
0.114727,-31.846555,0.114727,5.064
0.109211,-31.846555,0.109211,5.066
0.115138,-31.846555,0.115138,5.068
0.058227,-31.846555,0.058227,5.07
0.070074,-31.767648,0.070074,5.072
0.138974,-31.846555,0.138974,5.074
0.16191,-31.846555,0.16191,5.076
0.059124,-31.846555,0.059124,5.078
-0.03182,-31.925463,-0.03182,5.08
-0.053867,-31.925463,-0.053867,5.082
-0.001588,-31.925463,-0.001588,5.084
-0.035178,-31.925463,-0.035178,5.086
0.039867,-31.925463,0.039867,5.088
0.000399,-31.846555,0.000399,5.09
-0.004645,-31.925463,-0.004645,5.092
-0.072482,-31.846555,-0.072482,5.094
-0.071515,-31.846555,-0.071515,5.096
-0.002027,-31.925463,-0.002027,5.098
0.078598,-31.846555,0.078598,5.1
0.033265,-31.925463,0.033265,5.102
0.079484,-31.925463,0.079484,5.104
0.131223,-31.925463,0.131223,5.106
0.068544,-31.925463,0.068544,5.108
0.023253,-31.925463,0.023253,5.11
0.01812,-31.925463,0.01812,5.112
0.035849,-31.925463,0.035849,5.114
0.064928,-31.846555,0.064928,5.116
-0.111685,-31.925463,-0.111685,5.118
-0.25902,-31.925463,-0.25902,5.12
0.022524,-31.846555,0.022524,5.122
0.108765,-31.925463,0.108765,5.124
0.023344,-31.925463,0.023344,5.126
0.035347,-31.846555,0.035347,5.128
0.092985,-31.846555,0.092985,5.13
0.04189,-31.846555,0.04189,5.132
0.013847,-31.925463,0.013847,5.134
0.031601,-31.846555,0.031601,5.136
0.146358,-31.925463,0.146358,5.138
0.066494,-31.846555,0.066494,5.14
-0.064435,-31.846555,-0.064435,5.142
0.170633,-31.846555,0.170633,5.144
0.199166,-31.846555,0.199166,5.146
0.101955,-31.846555,0.101955,5.148
0.067955,-31.925463,0.067955,5.15
0.13688,-31.846555,0.13688,5.152
0.216942,-31.846555,0.216942,5.154
-0.00026,-31.925463,-0.00026,5.156
-0.119497,-31.846555,-0.119497,5.158
-0.101196,-31.846555,-0.101196,5.16
-0.025866,-31.846555,-0.025866,5.162
0.026316,-31.767648,0.026316,5.164
0.101125,-31.846555,0.101125,5.166
0.084263,-31.846555,0.084263,5.168
0.044629,-31.846555,0.044629,5.17
0.062261,-31.846555,0.062261,5.172
-0.011545,-31.925463,-0.011545,5.174
-0.005103,-31.846555,-0.005103,5.176
-0.015817,-31.846555,-0.015817,5.178
-0.009356,-31.846555,-0.009356,5.18
0.031341,-31.846555,0.031341,5.182
0.089003,-31.846555,0.089003,5.184
0.100746,-31.846555,0.100746,5.186
0.072469,-31.846555,0.072469,5.188
0.095701,-31.925463,0.095701,5.19
0.073155,-31.846555,0.073155,5.192
0.010729,-31.846555,0.010729,5.194
0.068475,-31.846555,0.068475,5.196
0.051752,-31.846555,0.051752,5.198
0.126462,-31.846555,0.126462,5.2
0.058108,-31.846555,0.058108,5.202
-0.038517,-31.925463,-0.038517,5.204
0.070825,-31.846555,0.070825,5.206
0.036962,-31.925463,0.036962,5.208
-0.048154,-31.846555,-0.048154,5.21
0.124043,-31.925463,0.124043,5.212
0.147066,-31.846555,0.147066,5.214
0.010106,-31.925463,0.010106,5.216
-0.09203,-31.846555,-0.09203,5.218
0.011824,-31.925463,0.011824,5.22
0.086702,-31.846555,0.086702,5.222
0.064198,-31.846555,0.064198,5.224
0.047497,-31.846555,0.047497,5.226
0.116519,-31.925463,0.116519,5.228
0.128155,-31.846555,0.128155,5.23
0.071219,-31.925463,0.071219,5.232
0.020227,-31.846555,0.020227,5.234
-0.019136,-31.846555,-0.019136,5.236
-0.075467,-31.925463,-0.075467,5.238
0.005482,-31.846555,0.005482,5.24
0.040417,-31.846555,0.040417,5.242
0.018107,-31.925463,0.018107,5.244
0.070122,-31.925463,0.070122,5.246
0.213289,-31.925463,0.213289,5.248
0.104615,-31.846555,0.104615,5.25
0.116303,-31.846555,0.116303,5.252
0.145073,-31.846555,0.145073,5.254
0.133753,-31.846555,0.133753,5.256
0.1339,-31.767648,0.1339,5.258
-0.003002,-31.846555,-0.003002,5.26
-0.047978,-31.846555,-0.047978,5.262
0.06141,-31.767648,0.06141,5.264
-0.02951,-31.846555,-0.02951,5.266
0.034121,-31.846555,0.034121,5.268
0.154595,-31.846555,0.154595,5.27
0.148948,-31.846555,0.148948,5.272
0.063379,-31.846555,0.063379,5.274
-0.073231,-31.767648,-0.073231,5.276
-0.066523,-31.846555,-0.066523,5.278
-0.002738,-31.846555,-0.002738,5.28
0.026524,-31.846555,0.026524,5.282
0.078508,-31.846555,0.078508,5.284
0.033204,-31.846555,0.033204,5.286
0.033769,-31.846555,0.033769,5.288
0.068594,-31.846555,0.068594,5.29
0.103276,-31.846555,0.103276,5.292
0.017899,-31.846555,0.017899,5.294
-0.004314,-31.846555,-0.004314,5.296
0.047799,-31.846555,0.047799,5.298
0.071147,-31.846555,0.071147,5.3
0.0944,-31.767648,0.0944,5.302
0.066164,-31.846555,0.066164,5.304
0.146541,-31.767648,0.146541,5.306
0.175194,-31.846555,0.175194,5.308
0.083813,-31.846555,0.083813,5.31
0.032779,-31.846555,0.032779,5.312
0.033346,-31.846555,0.033346,5.314
0.033912,-31.846555,0.033912,5.316
0.063028,-31.767648,0.063028,5.318
-0.016472,-31.846555,-0.016472,5.32
-0.044252,-31.846555,-0.044252,5.322
-0.003393,-31.846555,-0.003393,5.324
0.020168,-31.846555,0.020168,5.326
0.060763,-31.846555,0.060763,5.328
0.084062,-31.925463,0.084062,5.33
0.170079,-31.846555,0.170079,5.332
0.187219,-31.846555,0.187219,5.334
0.078661,-31.846555,0.078661,5.336
0.044782,-31.846555,0.044782,5.338
0.039594,-31.846555,0.039594,5.34
-0.062648,-31.846555,-0.062648,5.342
0.046811,-31.925463,0.046811,5.344
0.11585,-31.846555,0.11585,5.346
0.127504,-31.846555,0.127504,5.348
0.099136,-31.846555,0.099136,5.35
0.127988,-31.846555,0.127988,5.352
0.082488,-31.846555,0.082488,5.354
-0.059902,-31.846555,-0.059902,5.356
0.038126,-31.846555,0.038126,5.358
0.06723,-31.846555,0.06723,5.36
0.039111,-31.767648,0.039111,5.362
-0.017444,-31.846555,-0.017444,5.364
-0.022374,-31.846555,-0.022374,5.366
0.035531,-31.846555,0.035531,5.368
0.081778,-31.846555,0.081778,5.37
0.19065,-31.846555,0.19065,5.372
0.167737,-31.846555,0.167737,5.374
0.139208,-31.846555,0.139208,5.376
0.116505,-31.846555,0.116505,5.378
0.105315,-31.767648,0.105315,5.38
0.059909,-31.846555,0.059909,5.382
-0.013862,-31.846555,-0.013862,5.384
-0.001675,-31.846555,-0.001675,5.386
0.078986,-31.767648,0.078986,5.388
0.176447,-31.767648,0.176447,5.39
0.119331,-31.767648,0.119331,5.392
0.039606,-31.846555,0.039606,5.394
-0.045501,-31.846555,-0.045501,5.396
-0.027474,-31.846555,-0.027474,5.398
0.036164,-31.846555,0.036164,5.4
0.08812,-31.846555,0.08812,5.402
0.048498,-31.767648,0.048498,5.404
0.071853,-31.767648,0.071853,5.406
0.066561,-31.767648,0.066561,5.408
-0.092889,-31.846555,-0.092889,5.41
-0.051822,-31.846555,-0.051822,5.412
-0.016633,-31.846555,-0.016633,5.414
-0.015849,-31.846555,-0.015849,5.416
0.087718,-31.846555,0.087718,5.418
0.162309,-31.846555,0.162309,5.42
0.367932,-31.846555,0.367932,5.422
0.378559,-31.846555,0.378559,5.424
0.309195,-31.846555,0.309195,5.426
0.428555,-31.846555,0.428555,5.428
0.296168,-31.767648,0.296168,5.43
0.221426,-31.767648,0.221426,5.432
0.18696,-31.846555,0.18696,5.434
0.07269,-31.846555,0.07269,5.436
0.078806,-31.767648,0.078806,5.438
0.079186,-31.767648,0.079186,5.44
0.01104,-31.767648,0.01104,5.442
-0.091088,-31.846555,-0.091088,5.444
-0.015776,-31.767648,-0.015776,5.446
0.150594,-31.846555,0.150594,5.448
-0.054889,-31.846555,-0.054889,5.45
-0.122482,-31.767648,-0.122482,5.452
-0.06988,-31.767648,-0.06988,5.454
0.016771,-31.846555,0.016771,5.456
0.091646,-31.767648,0.091646,5.458
0.109111,-31.767648,0.109111,5.46
0.080822,-31.767648,0.080822,5.462
0.086911,-31.846555,0.086911,5.464
0.17863,-31.767648,0.17863,5.466
0.144345,-31.767648,0.144345,5.468
-0.07253,-31.767648,-0.07253,5.47
-0.00871,-31.846555,-0.00871,5.472
0.106242,-31.767648,0.106242,5.474
0.226434,-31.767648,0.226434,5.476
0.214795,-31.767648,0.214795,5.478
-0.002369,-31.767648,-0.002369,5.48
-0.030202,-31.68874,-0.030202,5.482
0.096258,-31.68874,0.096258,5.484
0.03947,-31.767648,0.03947,5.486
0.028597,-31.767648,0.028597,5.488
0.057742,-31.767648,0.057742,5.49
0.069637,-31.767648,0.069637,5.492
0.070062,-31.767648,0.070062,5.494
-0.009459,-31.767648,-0.009459,5.496
-0.054391,-31.767648,-0.054391,5.498
0.083592,-31.767648,0.083592,5.5
0.152486,-31.767648,0.152486,5.502
0.152574,-31.767648,0.152574,5.504
0.204053,-31.68874,0.204053,5.506
0.295293,-31.767648,0.295293,5.508
0.266241,-31.767648,0.266241,5.51
0.014604,-31.767648,0.014604,5.512
0.060934,-31.767648,0.060934,5.514
0.101365,-31.767648,0.101365,5.516
-0.012549,-31.767648,-0.012549,5.518
-0.103154,-31.767648,-0.103154,5.52
-0.022077,-31.767648,-0.022077,5.522
0.041538,-31.767648,0.041538,5.524
0.030659,-31.767648,0.030659,5.526
0.008404,-31.68874,0.008404,5.528
0.003372,-31.767648,0.003372,5.53
0.061175,-31.846555,0.061175,5.532
0.067348,-31.767648,0.067348,5.534
0.170571,-31.68874,0.170571,5.536
0.290502,-31.767648,0.290502,5.538
0.192948,-31.68874,0.192948,5.54
0.141475,-31.767648,0.141475,5.542
0.135895,-31.767648,0.135895,5.544
0.193151,-31.767648,0.193151,5.546
0.061731,-31.68874,0.061731,5.548
0.067897,-31.68874,0.067897,5.55
0.131141,-31.767648,0.131141,5.552
0.085629,-31.767648,0.085629,5.554
0.006042,-31.68874,0.006042,5.556
0.001016,-31.767648,0.001016,5.558
0.041694,-31.767648,0.041694,5.56
0.122177,-31.68874,0.122177,5.562
0.150938,-31.767648,0.150938,5.564
0.105346,-31.767648,0.105346,5.566
-0.037134,-31.846555,-0.037134,5.568
-0.059113,-31.68874,-0.059113,5.57
0.187383,-31.68874,0.187383,5.572
0.198747,-31.68874,0.198747,5.574
0.124408,-31.68874,0.124408,5.576
0.147448,-31.68874,0.147448,5.578
0.130422,-31.767648,0.130422,5.58
0.016389,-31.68874,0.016389,5.582
0.022741,-31.68874,0.022741,5.584
0.000515,-31.68874,0.000515,5.586
0.086878,-31.68874,0.086878,5.588
0.06439,-31.68874,0.06439,5.59
0.081967,-31.68874,0.081967,5.592
0.196548,-31.68874,0.196548,5.594
0.276396,-31.68874,0.276396,5.596
0.310233,-31.68874,0.310233,5.598
0.258275,-31.68874,0.258275,5.6
0.217948,-31.68874,0.217948,5.602
0.25773,-31.767648,0.25773,5.604
0.091777,-31.68874,0.091777,5.606
-0.050656,-31.68874,-0.050656,5.608
0.035909,-31.68874,0.035909,5.61
0.116409,-31.68874,0.116409,5.612
0.23084,-31.68874,0.23084,5.614
0.236306,-31.767648,0.236306,5.616
0.053308,-31.68874,0.053308,5.618
-0.020444,-31.68874,-0.020444,5.62
0.128809,-31.68874,0.128809,5.622
0.214636,-31.68874,0.214636,5.624
0.243008,-31.609833,0.243008,5.626
0.237,-31.68874,0.237,5.628
0.168202,-31.68874,0.168202,5.63
-0.014521,-31.767648,-0.014521,5.632
0.037628,-31.68874,0.037628,5.634
0.152378,-31.68874,0.152378,5.636
0.255236,-31.68874,0.255236,5.638
0.197782,-31.68874,0.197782,5.64
0.174825,-31.609833,0.174825,5.642
0.14625,-31.68874,0.14625,5.644
0.146344,-31.68874,0.146344,5.646
0.066492,-31.68874,0.066492,5.648
-0.047294,-31.68874,-0.047294,5.65
0.067799,-31.68874,0.067799,5.652
0.15958,-31.68874,0.15958,5.654
0.245274,-31.68874,0.245274,5.656
0.227829,-31.68874,0.227829,5.658
0.130511,-31.609833,0.130511,5.66
0.084984,-31.68874,0.084984,5.662
0.096746,-31.68874,0.096746,5.664
0.068487,-31.68874,0.068487,5.666
0.165972,-31.68874,0.165972,5.668
0.205953,-31.68874,0.205953,5.67
0.120143,-31.767648,0.120143,5.672
0.131759,-31.68874,0.131759,5.674
0.143326,-31.767648,0.143326,5.676
0.149136,-31.68874,0.149136,5.678
0.103529,-31.68874,0.103529,5.68
0.120921,-31.767648,0.120921,5.682
0.155373,-31.68874,0.155373,5.684
0.052636,-31.68874,0.052636,5.686
0.133049,-31.68874,0.133049,5.688
0.178871,-31.68874,0.178871,5.69
0.127429,-31.68874,0.127429,5.692
0.087618,-31.609833,0.087618,5.694
0.139335,-31.767648,0.139335,5.696
0.110896,-31.68874,0.110896,5.698
0.065441,-31.767648,0.065441,5.7
0.082986,-31.68874,0.082986,5.702
0.043357,-31.68874,0.043357,5.704
0.032441,-31.68874,0.032441,5.706
0.181459,-31.68874,0.181459,5.708
0.198529,-31.68874,0.198529,5.71
0.049929,-31.68874,0.049929,5.712
-0.143745,-31.68874,-0.143745,5.714
-0.09679,-31.767648,-0.09679,5.716
0.052759,-31.68874,0.052759,5.718
0.076069,-31.68874,0.076069,5.72
0.116415,-31.68874,0.116415,5.722
0.053809,-31.68874,0.053809,5.724
0.048563,-31.68874,0.048563,5.726
0.06047,-31.68874,0.06047,5.728
0.026646,-31.767648,0.026646,5.73
0.130008,-31.68874,0.130008,5.732
0.175843,-31.68874,0.175843,5.734
0.175807,-31.68874,0.175807,5.736
0.112957,-31.68874,0.112957,5.738
-0.01816,-31.68874,-0.01816,5.74
-0.028822,-31.68874,-0.028822,5.742
0.103319,-31.68874,0.103319,5.744
0.137842,-31.609833,0.137842,5.746
0.120831,-31.68874,0.120831,5.748
0.200964,-31.767648,0.200964,5.75
0.217955,-31.68874,0.217955,5.752
0.052144,-31.68874,0.052144,5.754
-0.038752,-31.68874,-0.038752,5.756
-0.015069,-31.68874,-0.015069,5.758
-0.077138,-31.68874,-0.077138,5.76
0.026649,-31.767648,0.026649,5.762
0.152852,-31.767648,0.152852,5.764
0.044415,-31.767648,0.044415,5.766
-0.10355,-31.68874,-0.10355,5.768
-0.028205,-31.767648,-0.028205,5.77
0.098224,-31.846555,0.098224,5.772
0.132771,-31.767648,0.132771,5.774
0.070101,-31.767648,0.070101,5.776
0.093342,-31.767648,0.093342,5.778
0.053674,-31.767648,0.053674,5.78
0.099823,-31.767648,0.099823,5.782
0.122943,-31.767648,0.122943,5.784
0.077443,-31.767648,0.077443,5.786
0.072102,-31.846555,0.072102,5.788
0.123886,-31.767648,0.123886,5.79
0.129774,-31.767648,0.129774,5.792
0.107087,-31.846555,0.107087,5.794
0.118754,-31.767648,0.118754,5.796
0.147505,-31.846555,0.147505,5.798
0.079061,-31.767648,0.079061,5.8
-0.006233,-31.767648,-0.006233,5.802
-0.062626,-31.846555,-0.062626,5.804
-0.044552,-31.767648,-0.044552,5.806
0.064814,-31.767648,0.064814,5.808
0.202283,-31.767648,0.202283,5.81
0.276375,-31.767648,0.276375,5.812
0.230245,-31.846555,0.230245,5.814
0.184303,-31.846555,0.184303,5.816
-0.067024,-31.846555,-0.067024,5.818
-0.054645,-31.767648,-0.054645,5.82
-0.12226,-31.767648,-0.12226,5.822
-0.07539,-31.767648,-0.07539,5.824
0.051233,-31.767648,0.051233,5.826
0.223021,-31.767648,0.223021,5.828
0.068616,-31.846555,0.068616,5.83
-0.090867,-31.767648,-0.090867,5.832
0.092923,-31.846555,0.092923,5.834
0.138913,-31.925463,0.138913,5.836
0.093349,-31.846555,0.093349,5.838
0.070813,-31.925463,0.070813,5.84
0.099762,-31.925463,0.099762,5.842
0.151433,-31.925463,0.151433,5.844
0.105817,-31.925463,0.105817,5.846
0.11178,-31.925463,0.11178,5.848
0.14627,-31.925463,0.14627,5.85
0.123516,-32.00437,0.123516,5.852
-0.053325,-32.00437,-0.053325,5.854
-0.029579,-31.925463,-0.029579,5.856
-0.005929,-32.00437,-0.005929,5.858
-0.0509,-31.925463,-0.0509,5.86
-0.044292,-32.00437,-0.044292,5.862
0.042234,-32.00437,0.042234,5.864
0.145537,-32.00437,0.145537,5.866
0.162761,-32.00437,0.162761,5.868
0.134232,-32.00437,0.134232,5.87
0.048716,-32.00437,0.048716,5.872
0.112018,-32.00437,0.112018,5.874
0.106538,-32.083278,0.106538,5.876
0.078238,-32.162185,0.078238,5.878
0.129998,-32.00437,0.129998,5.88
0.238649,-32.083278,0.238649,5.882
0.238358,-32.083278,0.238358,5.884
0.003944,-32.00437,0.003944,5.886
-0.149565,-32.083278,-0.149565,5.888
0.063016,-32.00437,0.063016,5.89
0.074866,-32.083278,0.074866,5.892
0.063827,-32.00437,0.063827,5.894
0.19559,-32.00437,0.19559,5.896
0.246869,-32.00437,0.246869,5.898
0.172308,-32.00437,0.172308,5.9
-0.061836,-32.00437,-0.061836,5.902
0.076151,-32.083278,0.076151,5.904
0.087945,-32.083278,0.087945,5.906
0.019746,-32.00437,0.019746,5.908
0.031772,-32.083278,0.031772,5.91
0.038039,-32.083278,0.038039,5.912
0.032859,-32.083278,0.032859,5.914
0.079094,-32.083278,0.079094,5.916
0.176532,-32.083278,0.176532,5.918
0.142234,-32.083278,0.142234,5.92
0.050972,-32.00437,0.050972,5.922
0.028607,-32.083278,0.028607,5.924
0.0977,-32.083278,0.0977,5.926
0.097986,-32.00437,0.097986,5.928
0.172504,-32.00437,0.172504,5.93
0.069697,-32.083278,0.069697,5.932
-0.009848,-32.083278,-0.009848,5.934
0.008009,-32.083278,0.008009,5.936
0.031504,-32.083278,0.031504,5.938
0.140558,-32.083278,0.140558,5.94
0.17493,-32.162185,0.17493,5.942
0.134927,-32.083278,0.134927,5.944
0.14648,-32.083278,0.14648,5.946
0.055199,-32.00437,0.055199,5.948
-0.041418,-32.083278,-0.041418,5.95
-0.000591,-32.083278,-0.000591,5.952
0.04007,-32.083278,0.04007,5.954
0.097695,-32.00437,0.097695,5.956
0.046588,-32.083278,0.046588,5.958
0.018532,-32.00437,0.018532,5.96
0.081956,-32.083278,0.081956,5.962
0.082308,-32.083278,0.082308,5.964
0.145471,-32.083278,0.145471,5.966
0.168402,-32.083278,0.168402,5.968
0.122715,-32.00437,0.122715,5.97
0.071505,-32.00437,0.071505,5.972
0.014794,-32.083278,0.014794,5.974
0.04397,-32.083278,0.04397,5.976
0.090158,-32.083278,0.090158,5.978
0.067633,-32.083278,0.067633,5.98
0.005229,-32.083278,0.005229,5.982
0.034445,-32.00437,0.034445,5.984
0.086384,-32.083278,0.086384,5.986
0.058165,-32.083278,0.058165,5.988
0.047192,-32.083278,0.047192,5.99
0.081948,-32.083278,0.081948,5.992
0.076589,-32.083278,0.076589,5.994
0.076962,-32.083278,0.076962,5.996
0.043072,-32.083278,0.043072,5.998
0.100686,-32.083278,0.100686,6
0.135222,-32.162185,0.135222,6.002
0.158196,-32.083278,0.158196,6.004
0.175364,-32.083278,0.175364,6.006
0.16391,-32.083278,0.16391,6.008
0.175343,-32.083278,0.175343,6.01
0.01542,-32.083278,0.01542,6.012
-0.103876,-32.083278,-0.103876,6.014
0.051413,-32.00437,0.051413,6.016
0.074729,-32.00437,0.074729,6.018
0.029426,-32.083278,0.029426,6.02
-0.032822,-32.083278,-0.032822,6.022
-0.117656,-32.083278,-0.117656,6.024
-0.070803,-32.00437,-0.070803,6.026
0.095776,-32.083278,0.095776,6.028
0.170307,-32.083278,0.170307,6.03
0.101774,-32.083278,0.101774,6.032
0.142018,-32.083278,0.142018,6.034
0.296302,-32.162185,0.296302,6.036
0.375719,-32.00437,0.375719,6.038
0.431966,-32.083278,0.431966,6.04
0.362353,-32.083278,0.362353,6.042
0.344416,-32.00437,0.344416,6.044
0.32655,-32.083278,0.32655,6.046
0.21168,-32.083278,0.21168,6.048
0.160092,-32.083278,0.160092,6.05
0.120136,-32.00437,0.120136,6.052
0.017529,-32.00437,0.017529,6.054
0.080942,-32.083278,0.080942,6.056
0.047021,-31.925463,0.047021,6.058
-0.015314,-32.083278,-0.015314,6.06
0.088207,-32.162185,0.088207,6.062
-0.031398,-32.083278,-0.031398,6.064
-0.09341,-32.00437,-0.09341,6.066
-0.063801,-32.00437,-0.063801,6.068
0.045632,-32.00437,0.045632,6.07
0.097514,-32.083278,0.097514,6.072
0.103501,-32.083278,0.103501,6.074
0.160856,-32.083278,0.160856,6.076
0.257947,-32.083278,0.257947,6.078
0.206171,-32.083278,0.206171,6.08
0.04611,-32.083278,0.04611,6.082
0.000911,-32.00437,0.000911,6.084
0.013,-32.083278,0.013,6.086
-0.054903,-32.083278,-0.054903,6.088
0.105885,-32.00437,0.105885,6.09
0.226042,-32.083278,0.226042,6.092
0.083031,-32.083278,0.083031,6.094
0.100495,-32.083278,0.100495,6.096
0.066494,-32.083278,0.066494,6.098
-0.01305,-32.083278,-0.01305,6.1
-0.006613,-32.00437,-0.006613,6.102
0.085453,-32.00437,0.085453,6.104
0.091487,-32.00437,0.091487,6.106
0.114628,-32.083278,0.114628,6.108
0.097701,-32.083278,0.097701,6.11
0.115105,-32.083278,0.115105,6.112
0.149568,-32.083278,0.149568,6.114
0.006869,-32.00437,0.006869,6.116
-0.083851,-32.00437,-0.083851,6.118
-0.048572,-32.00437,-0.048572,6.12
0.077929,-32.00437,0.077929,6.122
0.038313,-32.083278,0.038313,6.124
0.124486,-32.083278,0.124486,6.126
0.204595,-32.083278,0.204595,6.128
0.084514,-32.00437,0.084514,6.13
0.181917,-32.083278,0.181917,6.132
0.147582,-32.083278,0.147582,6.134
0.096257,-32.00437,0.096257,6.136
0.045141,-32.083278,0.045141,6.138
0.114152,-32.00437,0.114152,6.14
0.194301,-32.00437,0.194301,6.142
0.125652,-32.00437,0.125652,6.144
0.028732,-32.162185,0.028732,6.146
0.063546,-32.00437,0.063546,6.148
0.023984,-32.00437,0.023984,6.15
0.093081,-32.083278,0.093081,6.152
0.139053,-32.00437,0.139053,6.154
0.087761,-32.00437,0.087761,6.156
0.06523,-32.083278,0.06523,6.158
0.19126,-32.00437,0.19126,6.16
0.179725,-32.083278,0.179725,6.162
0.145395,-32.083278,0.145395,6.164
0.082653,-32.00437,0.082653,6.166
0.008748,-32.00437,0.008748,6.168
0.129297,-32.00437,0.129297,6.17
0.295034,-32.083278,0.295034,6.172
0.237387,-32.00437,0.237387,6.174
0.111452,-32.00437,0.111452,6.176
0.134501,-32.083278,0.134501,6.178
0.100351,-32.00437,0.100351,6.18
-0.007893,-32.083278,-0.007893,6.182
-0.007197,-32.00437,-0.007197,6.184
-0.006503,-32.083278,-0.006503,6.186
0.051291,-32.083278,0.051291,6.188
0.068877,-32.00437,0.068877,6.19
0.160625,-32.00437,0.160625,6.192
0.223445,-32.00437,0.223445,6.194
0.246034,-32.083278,0.246034,6.196
0.120061,-32.00437,0.120061,6.198
0.091678,-32.00437,0.091678,6.2
0.194749,-32.00437,0.194749,6.202
0.160349,-32.00437,0.160349,6.204
0.12609,-32.083278,0.12609,6.206
0.069129,-32.083278,0.069129,6.208
0.063794,-32.00437,0.063794,6.21
0.189818,-32.083278,0.189818,6.212
0.172567,-32.00437,0.172567,6.214
0.081152,-32.083278,0.081152,6.216
0.035793,-32.00437,0.035793,6.218
0.121958,-32.00437,0.121958,6.22
0.167798,-32.00437,0.167798,6.222
0.116373,-32.00437,0.116373,6.224
0.053738,-32.00437,0.053738,6.226
0.037042,-32.083278,0.037042,6.228
0.140332,-32.00437,0.140332,6.23
0.100439,-32.00437,0.100439,6.232
0.157786,-32.00437,0.157786,6.234
0.232027,-32.00437,0.232027,6.236
0.186047,-32.00437,0.186047,6.238
0.220198,-32.083278,0.220198,6.24
0.214236,-32.00437,0.214236,6.242
0.25969,-32.083278,0.25969,6.244
0.293535,-32.00437,0.293535,6.246
0.241585,-32.00437,0.241585,6.248
0.321184,-32.00437,0.321184,6.25
0.297669,-32.083278,0.297669,6.252
0.108649,-32.00437,0.108649,6.254
0.023189,-32.083278,0.023189,6.256
0.126519,-32.00437,0.126519,6.258
0.218005,-31.925463,0.218005,6.26
0.160647,-32.00437,0.160647,6.262
0.04071,-32.00437,0.04071,6.264
-0.073026,-32.00437,-0.073026,6.266
-0.083509,-32.00437,-0.083509,6.268
0.04881,-32.00437,0.04881,6.27
0.271952,-32.00437,0.271952,6.272
0.368552,-32.00437,0.368552,6.274
0.304864,-32.00437,0.304864,6.276
0.184333,-32.00437,0.184333,6.278
0.344099,-31.925463,0.344099,6.28
0.389002,-32.00437,0.389002,6.282
0.153913,-31.925463,0.153913,6.284
-0.005979,-31.925463,-0.005979,6.286
0.068907,-31.925463,0.068907,6.288
0.080672,-32.00437,0.080672,6.29
0.058128,-31.925463,0.058128,6.292
0.161302,-31.925463,0.161302,6.294
0.20124,-32.00437,0.20124,6.296
0.115386,-32.00437,0.115386,6.298
0.064145,-31.925463,0.064145,6.3
0.047376,-32.00437,0.047376,6.302
0.030676,-32.00437,0.030676,6.304
0.019755,-31.925463,0.019755,6.306
0.140216,-31.925463,0.140216,6.308
0.083163,-31.925463,0.083163,6.31
0.020634,-32.00437,0.020634,6.312
-0.024508,-31.925463,-0.024508,6.314
0.079003,-31.925463,0.079003,6.316
0.153539,-32.00437,0.153539,6.318
0.153535,-31.925463,0.153535,6.32
0.15353,-31.925463,0.15353,6.322
0.062159,-31.925463,0.062159,6.324
0.073949,-31.925463,0.073949,6.326
0.154213,-31.925463,0.154213,6.328
0.000025,-31.925463,0.000025,6.33
-0.113558,-32.00437,-0.113558,6.332
0.013158,-32.00437,0.013158,6.334
0.059412,-32.00437,0.059412,6.336
0.031242,-31.925463,0.031242,6.338
0.071711,-31.925463,0.071711,6.34
0.129145,-31.846555,0.129145,6.342
0.100689,-32.00437,0.100689,6.344
0.203686,-32.00437,0.203686,6.346
0.329102,-32.00437,0.329102,6.348
0.020017,-32.00437,0.020017,6.35
-0.059388,-32.00437,-0.059388,6.352
0.061393,-31.925463,0.061393,6.354
-0.018181,-32.00437,-0.018181,6.356
-0.011773,-32.00437,-0.011773,6.358
0.051712,-32.00437,0.051712,6.36
0.069254,-31.925463,0.069254,6.362
0.046753,-32.00437,0.046753,6.364
0.132839,-32.00437,0.132839,6.366
0.070104,-32.00437,0.070104,6.368
0.127543,-32.083278,0.127543,6.37
0.25898,-32.00437,0.25898,6.372
0.212857,-32.083278,0.212857,6.374
0.024164,-32.00437,0.024164,6.376
0.070367,-31.925463,0.070367,6.378
0.053567,-32.00437,0.053567,6.38
0.048257,-32.083278,0.048257,6.382
0.025838,-32.00437,0.025838,6.384
-0.036462,-32.083278,-0.036462,6.386
0.038542,-32.00437,0.038542,6.388
0.113239,-32.00437,0.113239,6.39
0.096265,-32.00437,0.096265,6.392
0.07365,-32.00437,0.07365,6.394
-0.040238,-32.00437,-0.040238,6.396
-0.045163,-32.00437,-0.045163,6.398
0.178346,-32.00437,0.178346,6.4
0.258181,-31.925463,0.258181,6.402
0.166377,-32.083278,0.166377,6.404
0.160603,-32.00437,0.160603,6.406
0.11488,-32.00437,0.11488,6.408
0.097896,-32.083278,0.097896,6.41
0.052429,-32.00437,0.052429,6.412
0.04141,-32.00437,0.04141,6.414
0.053278,-32.00437,0.053278,6.416
0.099359,-32.00437,0.099359,6.418
0.173803,-32.083278,0.173803,6.42
0.190837,-32.00437,0.190837,6.422
0.025071,-32.083278,0.025071,6.424
-0.008679,-32.00437,-0.008679,6.426
0.13473,-32.00437,0.13473,6.428
0.049138,-32.00437,0.049138,6.43
-0.121758,-32.00437,-0.121758,6.432
-0.017857,-32.00437,-0.017857,6.434
0.045646,-32.00437,0.045646,6.436
-0.028158,-32.00437,-0.028158,6.438
0.023968,-32.00437,0.023968,6.44
0.030198,-32.083278,0.030198,6.442
0.047824,-32.083278,0.047824,6.444
0.230977,-32.083278,0.230977,6.446
0.27633,-32.00437,0.27633,6.448
0.201579,-32.083278,0.201579,6.45
0.172816,-32.083278,0.172816,6.452
0.007122,-32.00437,0.007122,6.454
0.150464,-32.00437,0.150464,6.456
0.15046,-32.083278,0.15046,6.458
-0.009433,-32.083278,-0.009433,6.46
0.008349,-32.083278,0.008349,6.462
-0.071016,-32.00437,-0.071016,6.464
0.004123,-32.083278,0.004123,6.466
0.021851,-32.083278,0.021851,6.468
0.102321,-32.083278,0.102321,6.47
0.011151,-32.00437,0.011151,6.472
-0.022542,-32.00437,-0.022542,6.474
0.115214,-32.00437,0.115214,6.476
0.121067,-32.00437,0.121067,6.478
0.138317,-32.00437,0.138317,6.48
0.092681,-32.083278,0.092681,6.482
0.127177,-32.083278,0.127177,6.484
0.207214,-32.083278,0.207214,6.486
0.132742,-32.00437,0.132742,6.488
0.069996,-32.083278,0.069996,6.49
0.121713,-32.00437,0.121713,6.492
0.110405,-32.083278,0.110405,6.494
0.05917,-32.00437,0.05917,6.496
0.008144,-32.083278,0.008144,6.498
0.037273,-32.00437,0.037273,6.5
0.083413,-32.083278,0.083413,6.502
0.123654,-32.00437,0.123654,6.504
0.078075,-32.00437,0.078075,6.506
0.038393,-32.083278,0.038393,6.508
0.050266,-32.00437,0.050266,6.51
0.142035,-32.083278,0.142035,6.512
0.153483,-32.00437,0.153483,6.514
0.062097,-32.00437,0.062097,6.516
-0.023203,-32.00437,-0.023203,6.518
-0.005368,-32.00437,-0.005368,6.52
0.023815,-32.083278,0.023815,6.522
0.041458,-32.083278,0.041458,6.524
0.059029,-32.083278,0.059029,6.526
0.042266,-32.00437,0.042266,6.528
0.036993,-32.00437,0.036993,6.53
0.100265,-32.00437,0.100265,6.532
0.111885,-32.00437,0.111885,6.534
0.054933,-32.00437,0.054933,6.536
0.11242,-32.083278,0.11242,6.538
0.215354,-32.00437,0.215354,6.54
0.169397,-32.00437,0.169397,6.542
0.123628,-32.00437,0.123628,6.544
0.078045,-32.00437,0.078045,6.546
0.146855,-32.083278,0.146855,6.548
0.203962,-32.00437,0.203962,6.55
0.066683,-32.00437,0.066683,6.552
0.0042,-32.083278,0.0042,6.554
0.124704,-32.083278,0.124704,6.556
0.090535,-32.00437,0.090535,6.558
0.050795,-32.083278,0.050795,6.56
0.074032,-32.083278,0.074032,6.562
-0.017033,-32.00437,-0.017033,6.564
0.029323,-32.083278,0.029323,6.566
0.115462,-32.00437,0.115462,6.568
0.224088,-32.00437,0.224088,6.57
0.298007,-32.00437,0.298007,6.572
0.154629,-32.083278,0.154629,6.574
-0.073818,-32.00437,-0.073818,6.576
-0.004391,-32.00437,-0.004391,6.578
0.087593,-32.083278,0.087593,6.58
0.0136,-32.083278,0.0136,6.582
-0.071509,-32.00437,-0.071509,6.584
-0.082035,-32.083278,-0.082035,6.586
0.027401,-32.083278,0.027401,6.588
0.159229,-32.00437,0.159229,6.59
0.199152,-32.00437,0.199152,6.592
0.210358,-32.083278,0.210358,6.594
0.118732,-32.00437,0.118732,6.596
0.02177,-32.00437,0.02177,6.598
0.01657,-32.00437,0.01657,6.6
-0.005739,-32.00437,-0.005739,6.602
0.023437,-32.00437,0.023437,6.604
0.012521,-32.00437,0.012521,6.606
0.104436,-32.00437,0.104436,6.608
0.178844,-32.00437,0.178844,6.61
0.104477,-32.00437,0.104477,6.612
0.087517,-31.925463,0.087517,6.614
0.139151,-32.00437,0.139151,6.616
0.127759,-32.083278,0.127759,6.618
0.133544,-32.00437,0.133544,6.62
0.013677,-32.083278,0.013677,6.622
-0.002912,-32.00437,-0.002912,6.624
-0.087957,-32.00437,-0.087957,6.626
-0.041315,-32.00437,-0.041315,6.628
-0.006283,-32.00437,-0.006283,6.63
0.074287,-32.00437,0.074287,6.632
0.143107,-31.925463,0.143107,6.634
0.251617,-32.00437,0.251617,6.636
0.148398,-32.00437,0.148398,6.638
0.096995,-32.00437,0.096995,6.64
0.148587,-32.00437,0.148587,6.642
0.262781,-32.00437,0.262781,6.644
0.382215,-32.083278,0.382215,6.646
0.415503,-32.00437,0.415503,6.648
0.328735,-32.00437,0.328735,6.65
0.162376,-32.00437,0.162376,6.652
0.156585,-32.00437,0.156585,6.654
0.150818,-32.00437,0.150818,6.656
0.145074,-32.00437,0.145074,6.658
0.139352,-32.00437,0.139352,6.66
0.059419,-32.00437,0.059419,6.662
-0.06587,-32.00437,-0.06587,6.664
-0.11641,-32.00437,-0.11641,6.666
-0.103928,-32.00437,-0.103928,6.668
-0.000131,-31.925463,-0.000131,6.67
0.040428,-31.925463,0.040428,6.672
0.040849,-32.00437,0.040849,6.674
0.058399,-32.00437,0.058399,6.676
0.155821,-32.00437,0.155821,6.678
0.224292,-32.00437,0.224292,6.68
0.109751,-32.00437,0.109751,6.682
0.02423,-32.00437,0.02423,6.684
0.133211,-32.083278,0.133211,6.686
0.1618,-32.00437,0.1618,6.688
0.081775,-32.00437,0.081775,6.69
0.104863,-32.00437,0.104863,6.692
0.236352,-32.00437,0.236352,6.694
0.253094,-31.925463,0.253094,6.696
0.069906,-32.00437,0.069906,6.698
-0.095402,-32.00437,-0.095402,6.7
-0.088721,-32.00437,-0.088721,6.702
-0.110619,-32.00437,-0.110619,6.704
-0.006798,-32.00437,-0.006798,6.706
0.165121,-32.00437,0.165121,6.708
0.107923,-32.00437,0.107923,6.71
0.06809,-32.00437,0.06809,6.712
0.091233,-32.00437,0.091233,6.714
0.137122,-32.00437,0.137122,6.716
0.13714,-32.00437,0.13714,6.718
0.165709,-32.00437,0.165709,6.72
0.159897,-32.00437,0.159897,6.722
0.159819,-32.00437,0.159819,6.724
0.165451,-31.925463,0.165451,6.726
0.079694,-31.925463,0.079694,6.728
-0.017133,-31.925463,-0.017133,6.73
